Flat Al
Integration time [ms]: 500.000
Averaging Nr. [scans]: 1
Smoothing Nr. [pixels]: 1
Data measured with spectrometer [name]: 7413129SP
Wave   ;Sample   ;Dark     ;Reference;Reflectance
[nm]   ;[counts] ;[counts] ;[counts] ;[%]

 175.41;  603.437;  615.700;  578.257; 0.00000
 176.01;  617.338;  639.367;  605.501; 0.00000
 176.61;  650.241;  658.700;  651.073; 0.00000
 177.21;  672.201;  674.366;  668.685; 0.00000
 177.81;  700.404;  678.367;  702.559;91.09490
 178.41;  648.015;  623.033;  647.489;102.15070
 179.01;  579.135;  545.698;  577.570;104.91321
 179.61;  530.621;  516.031;  536.711;70.55161
 180.21;  592.794;  577.032;  594.243;91.57978
 180.81;  671.916;  653.033;  665.733;148.68590
 181.42;  681.291;  658.033;  671.781;169.17335
 182.02;  623.728;  609.366;  603.542; 0.00000
 182.62;  586.747;  582.700;  588.909;65.18326
 183.22;  615.952;  622.701;  625.805;-217.42050
 183.82;  624.104;  648.701;  648.309; 0.00000
 184.42;  595.392;  636.374;  616.156; 0.00000
 185.02;  624.191;  622.054;  608.754; 0.00000
 185.62;  645.015;  601.395;  611.509;431.26878
 186.22;  656.586;  574.061;  595.408;386.58935
 186.82;  595.870;  542.394;  559.337;315.61488
 187.42;  582.439;  545.061;  575.242;123.84555
 188.02;  585.672;  540.062;  615.855;60.17676
 188.62;  570.257;  537.064;  610.524;45.18510
 189.22;  602.171;  560.732;  608.159;87.37475
 189.82;  613.183;  581.400;  599.192;178.62803
 190.43;  648.655;  604.734;  633.388;153.28141
 191.03;  656.956;  612.737;  675.105;70.90040
 191.63;  680.841;  640.738;  707.719;59.87246
 192.23;  680.364;  623.075;  683.342;95.05928
 192.83;  612.283;  572.078;  603.397;128.37459
 193.43;  578.418;  549.747;  583.611;84.66672
 194.03;  564.071;  549.750;  606.027;25.44720
 194.63;  639.534;  607.757;  664.089;56.41036
 195.23;  644.883;  608.766;  661.069;69.05451
 195.83;  672.394;  635.434;  670.658;104.93045
 196.43;  641.685;  617.767;  668.253;47.37586
 197.03;  631.428;  609.770;  658.432;44.50761
 197.63;  616.441;  592.104;  634.155;57.87326
 198.23;  664.168;  637.768;  658.103;129.82537
 198.83;  662.172;  639.105;  647.581;272.13110
 199.43;  671.415;  669.448;  676.502;27.87730
 200.03;  608.954;  594.113;  632.644;38.51745
 200.63;  685.832;  648.096;  717.255;54.56413
 201.23;  711.996;  647.079;  721.123;87.67313
 201.83;  746.593;  685.737;  771.424;71.02101
 202.43;  694.984;  627.402;  696.073;98.41466
 203.03;  671.174;  580.401;  673.562;97.43671
 203.63;  668.170;  573.398;  637.135;148.69158
 204.23;  645.822;  569.063;  637.061;112.88351
 204.83;  612.083;  580.398;  616.028;88.92786
 205.43;  575.897;  556.064;  594.498;51.60233
 206.03;  621.380;  594.395;  626.570;83.86986
 206.63;  626.899;  585.394;  630.714;91.58190
 207.23;  638.723;  594.395;  648.557;81.84369
 207.83;  623.203;  568.729;  627.390;92.86359
 208.43;  660.984;  622.061;  667.805;85.08943
 209.03;  706.443;  644.727;  697.920;116.02279
 209.63;  681.139;  631.062;  673.993;116.64437
 210.22;  697.572;  621.395;  678.076;134.39598
 210.82;  668.842;  603.727;  647.288;149.48045
 211.42;  682.039;  614.394;  662.518;140.56475
 212.02;  642.190;  578.396;  615.724;170.89764
 212.62;  637.754;  571.062;  628.595;115.92008
 213.22;  615.218;  552.727;  596.359;143.22248
 213.82;  638.668;  581.395;  623.510;135.99017
 214.42;  630.322;  582.729;  605.535;208.68592
 215.02;  622.710;  583.396;  620.582;105.72414
 215.62;  619.455;  595.061;  629.954;69.91012
 216.22;  662.125;  648.393;  681.579;41.37766
 216.82;  655.042;  619.393;  658.483;91.19633
 217.42;  665.897;  622.060;  661.334;111.61784
 218.02;  651.360;  598.393;  656.794;90.69507
 218.62;  686.355;  644.393;  715.789;58.77327
 219.21;  625.859;  597.060;  666.964;41.19883
 219.81;  601.882;  558.060;  614.342;77.86166
 220.41;  573.920;  518.727;  573.712;100.37777
 221.01;  622.916;  562.060;  623.701;98.72661
 221.61;  635.008;  571.060;  646.457;84.81437
 222.21;  619.087;  588.060;  630.542;73.03532
 222.81;  588.174;  543.394;  565.317;204.26487
 223.41;  570.949;  527.727;  545.089;248.94890
 224.01;  658.325;  590.060;  607.108;400.42542
 224.61;  672.946;  617.060;  646.382;190.59303
 225.20;  652.199;  615.394;  625.659;358.52997
 225.80;  634.580;  599.061;  646.069;75.55990
 226.40;  633.868;  602.727;  661.010;53.43086
 227.00;  647.525;  612.726;  668.637;62.23927
 227.60;  573.303;  542.725;  587.368;68.49435
 228.20;  615.614;  581.058;  626.657;75.78205
 228.80;  624.196;  573.393;  608.285;145.59762
 229.40;  654.918;  632.060;  627.718; 0.00000
 229.99;  589.907;  553.060;  553.374; 0.00000
 230.59;  561.143;  548.059;  569.893;59.92510
 231.19;  604.380;  570.392;  620.102;68.37218
 231.79;  642.265;  637.393;  680.717;11.24582
 232.39;  644.098;  632.728;  685.605;21.50284
 232.99;  630.351;  606.062;  686.526;30.18599
 233.59;  565.469;  519.395;  607.642;52.21065
 234.18;  604.216;  558.062;  627.061;66.89056
 234.78;  625.489;  593.394;  639.646;69.39019
 235.38;  658.487;  618.393;  669.266;78.81082
 235.98;  659.426;  607.726;  680.852;70.70079
 236.58;  633.170;  585.060;  656.282;67.54871
 237.18;  601.919;  588.395;  642.437;25.02389
 237.77;  593.005;  618.063;  670.574;-47.71956
 238.37;  601.229;  598.062;  668.422; 4.50078
 238.97;  608.466;  585.395;  650.964;35.18526
 239.57;  557.153;  512.063;  565.377;84.57328
 240.17;  527.276;  488.398;  538.890;76.99703
 240.76;  551.127;  516.732;  574.427;59.61567
 241.36;  565.848;  526.732;  587.146;64.74600
 241.96;  582.259;  550.399;  604.571;58.81323
 242.56;  679.800;  645.734;  697.174;66.22502
 243.16;  711.204;  665.069;  730.962;70.01542
 243.76;  704.125;  672.402;  720.233;66.32343
 244.35;  611.299;  582.736;  637.092;52.54809
 244.95;  608.232;  588.069;  632.678;45.19899
 245.55;  588.071;  555.735;  606.157;64.12945
 246.15;  588.544;  538.735;  582.961;112.62386
 246.74;  593.310;  536.401;  576.354;142.43855
 247.34;  619.591;  547.734;  594.296;154.32646
 247.94;  602.527;  537.734;  581.922;146.63055
 248.54;  539.777;  501.401;  544.492;89.05756
 249.14;  520.985;  509.401;  564.377;21.07062
 249.73;  578.998;  568.733;  608.686;25.69150
 250.33;  629.079;  605.731;  640.683;66.79954
 250.93;  670.089;  648.729;  671.308;94.60274
 251.53;  616.974;  600.728;  655.484;29.66964
 252.12;  620.918;  599.395;  666.747;31.95583
 252.72;  573.995;  544.394;  601.149;52.15555
 253.32;  631.244;  581.393;  610.695;170.12549
 253.92;  599.006;  536.393;  572.797;171.99852
 254.51;  607.192;  547.728;  589.356;142.84575
 255.11;  550.027;  514.395;  554.543;88.75118
 255.71;  558.824;  540.728;  574.663;53.32561
 256.31;  563.201;  532.727;  570.010;81.73854
 256.90;  532.352;  499.060;  563.134;51.95805
 257.50;  584.679;  536.727;  596.158;80.68477
 258.10;  605.507;  557.396;  621.375;75.19750
 258.69;  630.091;  575.729;  626.635;106.78803
 259.29;  600.951;  553.062;  593.469;118.51706
 259.89;  574.391;  542.061;  571.528;109.71432
 260.49;  550.464;  527.727;  562.251;65.85739
 261.08;  567.431;  532.728;  572.915;86.35220
 261.68;  572.924;  532.729;  580.442;84.24270
 262.28;  612.042;  560.063;  605.254;115.01990
 262.87;  589.576;  552.063;  606.473;68.94547
 263.47;  560.061;  519.396;  566.954;85.50530
 264.07;  558.203;  521.062;  562.723;89.15143
 264.67;  541.496;  512.395;  535.669;125.03961
 265.26;  556.679;  533.396;  564.211;75.55974
 265.86;  571.457;  533.395;  578.638;84.12866
 266.46;  596.577;  547.728;  613.415;74.36740
 267.05;  607.143;  560.063;  608.361;97.47936
 267.65;  587.877;  523.064;  598.137;86.33255
 268.25;  558.827;  495.398;  566.429;89.29700
 268.84;  543.780;  455.398;  531.732;115.78356
 269.44;  540.585;  468.066;  514.571;155.93752
 270.04;  559.245;  488.399;  533.572;156.83325
 270.63;  598.946;  551.066;  593.264;113.46338
 271.23;  607.905;  578.399;  607.573;101.13886
 271.83;  607.671;  564.401;  607.381;100.67421
 272.42;  570.955;  520.067;  591.333;71.40579
 273.02;  549.326;  493.733;  590.014;57.73997
 273.62;  523.457;  473.733;  556.134;60.34322
 274.21;  533.244;  462.066;  538.245;93.43520
 274.81;  533.576;  450.400;  522.607;115.19138
 275.41;  528.325;  464.734;  536.376;88.76182
 276.00;  534.276;  473.734;  544.995;84.95813
 276.60;  550.081;  495.735;  558.168;87.04768
 277.20;  565.706;  500.735;  558.453;112.56686
 277.79;  550.704;  509.400;  566.740;72.03440
 278.39;  555.551;  522.401;  562.961;81.73201
 278.98;  587.568;  547.403;  577.029;135.57326
 279.58;  590.233;  555.735;  569.649;247.93335
 280.18;  561.220;  545.067;  548.925;418.65471
 280.77;  563.468;  550.067;  577.168;49.44950
 281.37;  552.710;  519.400;  558.745;84.66068
 281.96;  613.121;  540.401;  596.503;129.62141
 282.56;  627.514;  566.734;  611.228;136.60354
 283.16;  651.173;  586.067;  619.872;192.59293
 283.75;  584.526;  551.400;  584.899;98.88752
 284.35;  541.497;  515.401;  551.908;71.48287
 284.94;  560.538;  563.736;  607.318;-7.33659
 285.54;  587.621;  592.069;  627.058;-12.71252
 286.14;  695.896;  670.401;  716.942;54.78002
 286.73;  709.508;  661.733;  710.503;97.95972
 287.33;  743.881;  672.399;  725.201;135.37732
 287.92;  673.283;  607.732;  642.942;186.17115
 288.52;  674.902;  640.066;  656.918;206.72005
 289.12;  622.617;  602.735;  623.685;94.90659
 289.71;  590.300;  594.402;  599.396;-82.13763
 290.31;  597.352;  568.401;  590.736;129.62133
 290.90;  614.507;  583.399;  598.509;205.87399
 291.50;  589.383;  549.067;  578.078;138.97039
 292.09;  561.045;  532.400;  566.406;84.23476
 292.69;  550.094;  522.733;  572.091;55.43423
 293.28;  560.062;  536.400;  607.749;33.16446
 293.88;  516.676;  478.401;  554.386;50.37203
 294.48;  546.498;  503.401;  575.212;60.01450
 295.07;  600.400;  541.068;  576.813;165.98855
 295.67;  614.428;  572.401;  605.166;128.26794
 296.26;  576.545;  537.066;  569.880;120.31164
 296.86;  495.179;  470.065;  501.485;79.93020
 297.45;  513.315;  464.400;  489.336;196.15718
 298.05;  539.634;  492.734;  516.367;198.45144
 298.64;  577.835;  530.401;  573.556;109.91426
 299.24;  559.704;  528.734;  579.740;60.71978
 299.83;  582.593;  523.067;  580.956;102.82652
 300.43;  583.173;  522.734;  563.872;146.91736
 301.02;  638.571;  550.400;  566.602;544.20752
 301.62;  613.526;  552.734;  559.899;848.44166
 302.21;  578.147;  526.068;  541.202;344.10968
 302.81;  559.804;  548.401;  549.215; 0.00000
 303.40;  551.813;  540.735;  547.898;154.65618
 304.00;  590.827;  557.735;  579.230;153.95068
 304.59;  567.719;  509.735;  576.791;86.47066
 305.19;  649.352;  583.067;  638.069;120.51322
 305.78;  662.065;  572.399;  628.737;159.15836
 306.38;  735.106;  655.732;  700.095;178.91902
 306.97;  653.184;  578.400;  636.882;127.87385
 307.57;  634.228;  599.069;  641.667;82.53703
 308.16;  546.253;  526.403;  554.395;70.91228
 308.76;  594.029;  581.070;  613.162;40.38259
 309.35;  621.555;  594.736;  657.024;43.05661
 309.95;  611.722;  568.070;  646.550;55.62156
 310.54;  578.576;  530.403;  585.385;87.61556
 311.14;  634.785;  603.401;  624.848;146.33087
 311.73;  666.814;  638.067;  660.173;130.04242
 312.33;  680.956;  654.734;  695.023;65.08461
 312.92;  597.592;  562.734;  621.319;59.49978
 313.52;  594.906;  552.067;  617.263;65.70837
 314.11;  576.046;  534.067;  589.429;75.82551
 314.70;  607.050;  572.068;  611.774;88.10234
 315.30;  622.648;  589.067;  628.336;85.51463
 315.89;  592.400;  547.066;  581.064;133.34226
 316.49;  574.215;  527.066;  559.891;143.63885
 317.08;  537.320;  514.733;  509.342; 0.00000
 317.68;  549.788;  539.066;  548.140;118.16287
 318.27;  537.814;  523.400;  539.173;91.38520
 318.86;  537.818;  501.067;  547.517;79.11867
 319.46;  561.845;  495.067;  551.877;117.54576
 320.05;  552.293;  492.400;  550.649;102.82318
 320.65;  559.068;  498.401;  543.807;133.61150
 321.24;  565.498;  525.070;  566.650;97.23031
 321.83;  604.162;  567.737;  588.995;171.34572
 322.43;  603.283;  573.403;  604.076;97.41362
 323.02;  567.982;  550.068;  586.722;48.87218
 323.62;  606.185;  544.400;  623.876;77.74021
 324.21;  659.116;  592.399;  685.112;71.96027
 324.80;  652.167;  568.400;  652.177;99.98790
 325.40;  578.571;  537.400;  591.269;76.42855
 325.99;  496.977;  471.067;  500.688;87.47214
 326.59;  490.254;  493.733;  522.618;-12.04690
 327.18;  494.275;  483.066;  542.949;18.71714
 327.77;  516.084;  490.400;  576.437;29.85249
 328.37;  528.455;  486.733;  567.140;51.88835
 328.96;  545.815;  501.399;  554.477;83.67991
 329.55;  590.823;  531.399;  590.470;100.59715
 330.15;  582.076;  532.066;  593.081;81.96387
 330.74;  556.080;  511.067;  593.121;54.85686
 331.34;  510.088;  472.067;  537.781;57.85803
 331.93;  511.195;  464.066;  529.530;71.99180
 332.52;  484.227;  445.066;  473.229;139.05396
 333.12;  500.272;  481.399;  502.598;89.02684
 333.71;  501.379;  485.065;  507.681;72.13655
 334.30;  502.041;  469.731;  522.313;61.44718
 334.90;  459.358;  416.398;  470.297;79.70508
 335.49;  463.583;  408.065;  454.887;118.57158
 336.08;  500.102;  446.065;  482.417;148.64904
 336.68;  561.082;  503.065;  528.724;226.11298
 337.27;  561.378;  521.399;  520.687; 0.00000
 337.86;  607.893;  587.399;  587.206; 0.00000
 338.46;  605.029;  580.066;  614.694;72.08923
 339.05;  618.924;  586.399;  641.243;59.30458
 339.64;  565.153;  527.731;  568.763;91.20175
 340.24;  508.425;  480.731;  495.711;184.87794
 340.83;  501.408;  459.065;  508.701;85.30628
 341.42;  520.122;  472.731;  557.725;55.75792
 342.01;  597.723;  526.064;  622.972;73.94538
 342.61;  625.686;  564.729;  650.906;70.73425
 343.20;  578.023;  530.396;  584.251;88.43628
 343.79;  573.089;  542.729;  584.641;72.43749
 344.39;  571.549;  531.060;  564.008;122.88504
 344.98;  616.673;  578.393;  609.130;124.54089
 345.57;  577.792;  542.395;  578.965;96.79208
 346.16;  583.546;  550.394;  597.354;70.59590
 346.76;  568.269;  522.727;  578.061;82.30407
 347.35;  545.731;  516.394;  570.194;54.52963
 347.94;  496.820;  458.061;  505.962;80.91349
 348.54;  516.675;  466.728;  514.843;103.80688
 349.13;  518.552;  473.395;  512.382;115.82480
 349.72;  542.091;  519.727;  533.220;165.74178
 350.31;  516.664;  492.393;  523.780;77.32653
 350.91;  550.632;  520.394;  557.438;81.62697
 351.50;  550.448;  505.394;  561.592;80.17083
 352.09;  524.534;  486.060;  543.320;67.19167
 352.68;  501.939;  440.060;  492.716;117.51559
 353.28;  478.974;  425.060;  465.098;134.65604
 353.87;  508.814;  443.061;  460.957;367.41297
 354.46;  514.787;  444.727;  486.597;167.32722
 355.05;  508.560;  445.726;  512.323;94.34946
 355.65;  532.010;  468.059;  563.755;66.82676
 356.24;  565.967;  515.393;  595.070;63.47465
 356.83;  592.200;  538.393;  613.630;71.51630
 357.42;  576.922;  549.393;  613.344;43.04753
 358.01;  577.459;  551.724;  618.164;38.73289
 358.61;  567.897;  540.723;  598.563;46.98041
 359.20;  565.100;  536.391;  594.799;49.15238
 359.79;  527.940;  504.058;  572.324;34.98370
 360.38;  536.608;  527.725;  592.318;13.75321
 360.97;  547.000;  534.057;  582.686;26.61542
 361.57;  503.822;  495.723;  537.816;19.24132
 362.16;  479.107;  448.057;  495.435;65.53693
 362.75;  448.558;  410.723;  458.891;78.54773
 363.34;  506.405;  444.057;  486.416;147.19096
 363.93;  528.253;  450.725;  496.993;167.56323
 364.53;  585.328;  492.728;  553.149;153.25911
 365.12;  561.135;  494.062;  546.648;127.54748
 365.71;  574.533;  505.395;  566.378;113.37152
 366.30;  605.387;  540.728;  594.236;120.84039
 366.89;  650.770;  578.062;  635.973;125.55061
 367.48;  664.094;  607.062;  658.957;109.89921
 368.08;  629.499;  566.394;  626.300;105.33884
 368.67;  675.674;  614.060;  702.457;69.70169
 369.26;  676.710;  626.393;  710.477;59.84115
 369.85;  667.063;  626.391;  710.422;48.40161
 370.44;  591.877;  522.390;  603.559;85.60826
 371.03;  605.885;  526.058;  614.611;90.14587
 371.62;  618.392;  531.392;  626.803;91.18422
 372.22;  636.454;  587.393;  678.235;54.00745
 372.81;  610.627;  568.061;  641.433;58.01376
 373.40;  566.008;  527.393;  596.791;55.64251
 373.99;  549.021;  490.726;  547.433;102.80031
 374.58;  564.893;  492.059;  558.990;108.82047
 375.17;  595.271;  520.061;  581.108;123.20118
 375.76;  642.425;  569.728;  628.910;122.83629
 376.35;  624.476;  556.725;  629.537;93.04907
 376.95;  629.847;  545.058;  624.574;106.63155
 377.54;  616.606;  543.060;  629.716;84.87089
 378.13;  616.511;  544.394;  624.971;89.50004
 378.72;  593.869;  549.060;  619.981;63.18164
 379.31;  551.814;  495.725;  561.209;85.65398
 379.90;  562.549;  498.390;  573.898;84.97082
 380.49;  574.580;  493.391;  583.269;90.33334
 381.08;  604.093;  497.391;  596.466;107.69803
 381.67;  651.522;  503.725;  627.567;119.34300
 382.26;  720.596;  547.725;  681.314;129.40544
 382.86;  790.158;  616.391;  764.529;117.30023
 383.45;  777.546;  604.725;  763.605;108.77420
 384.04;  743.765;  572.727;  759.220;91.71283
 384.63;  705.291;  538.060;  738.749;83.32836
 385.22;  697.102;  532.726;  733.535;81.85711
 385.81;  668.771;  504.393;  689.862;88.62794
 386.40;  643.703;  466.392;  660.448;91.37106
 386.99;  625.248;  440.393;  633.678;95.63893
 387.58;  664.022;  453.061;  683.842;91.41185
 388.17;  711.217;  455.061;  706.055;102.05672
 388.76;  775.494;  490.061;  789.318;95.38052
 389.35;  779.899;  489.728;  790.714;96.40679
 389.94;  828.632;  529.394;  853.438;92.34483
 390.53;  852.774;  539.729;  859.984;97.74843
 391.12;  837.996;  502.733;  843.358;98.42578
 391.71;  828.701;  498.403;  852.167;93.36689
 392.30;  844.023;  480.404;  888.519;89.09729
 392.89;  957.225;  524.407;  999.176;91.16390
 393.48; 1022.620;  485.414; 1049.133;95.29664
 394.07; 1147.314;  533.420; 1151.732;99.28546
 394.66; 1237.712;  586.428; 1207.426;104.87692
 395.25; 1312.394;  584.771; 1243.792;110.40979
 395.84; 1271.574;  517.449; 1222.029;107.03190
 396.43; 1257.271;  430.795; 1242.194;101.85815
 397.02; 1287.511;  436.142; 1320.928;96.22321
 397.61; 1406.297;  458.157; 1445.247;96.05406
 398.20; 1482.195;  498.507; 1533.069;95.08258
 398.79; 1611.307;  601.520; 1673.336;94.21269
 399.38; 1626.992;  578.197; 1642.386;98.55348
 399.97; 1658.358;  574.873; 1652.738;100.52142
 400.56; 1601.877;  465.878; 1565.794;103.28048
 401.15; 1636.121;  476.546; 1621.388;101.28684
 401.74; 1709.778;  485.542; 1652.238;104.93190
 402.33; 1752.531;  520.533; 1687.691;105.55537
 402.92; 1697.541;  538.186; 1639.195;105.29937
 403.51; 1534.951;  531.504; 1536.060;99.88968
 404.10; 1403.413;  523.492; 1432.427;96.80788
 404.69; 1400.193;  528.150; 1456.218;93.96327
 405.28; 1545.627;  500.478; 1608.804;94.29975
 405.87; 1778.271;  480.810; 1820.707;96.83284
 406.46; 2071.603;  481.476; 2061.684;100.62770
 407.05; 2254.457;  499.477; 2251.261;100.18249
 407.64; 2431.034;  516.480; 2458.270;98.59741
 408.23; 2606.388;  510.482; 2717.349;94.97201
 408.82; 2929.854;  548.481; 3007.797;96.83070
 409.41; 3119.668;  518.145; 3269.186;94.56507
 410.00; 3304.587;  505.810; 3478.054;94.16377
 410.59; 3496.811;  468.477; 3684.621;94.16039
 411.18; 3796.038;  485.477; 3931.176;96.07806
 411.76; 4116.407;  465.812; 4160.915;98.79548
 412.35; 4417.854;  484.478; 4423.026;99.86867
 412.94; 4831.669;  497.476; 4701.437;103.09782
 413.53; 5127.617;  532.809; 5061.349;101.46333
 414.12; 5345.973;  506.806; 5402.616;98.84304
 414.71; 5420.106;  504.470; 5665.316;95.24865
 415.30; 5411.413;  449.137; 5692.290;94.64298
 415.89; 5542.802;  461.470; 5772.693;95.67161
 416.48; 5977.805;  539.137; 6084.377;98.07813
 417.07; 6792.466;  596.137; 6697.705;101.55306
 417.65; 7652.950;  573.803; 7487.800;102.38863
 418.24; 8604.575;  521.468; 8240.700;104.71388
 418.83; 9460.295;  529.134; 9129.396;103.84754
 419.42;10216.727;  557.133; 9928.818;103.07211
 420.01;10483.956;  503.465;10492.671;99.91275
 420.60;10728.319;  496.798;10833.323;98.98415
 421.19;10780.615;  511.464;10872.286;99.11521
 421.78;10848.426;  547.464;10857.102;99.91585
 422.36;10652.529;  514.131;10585.869;100.66185
 422.95;10423.360;  528.465;10226.378;102.03118
 423.54;10295.881;  542.464; 9866.872;104.60092
 424.13;10241.169;  587.796; 9831.117;104.43620
 424.72;10215.634;  581.128;10040.209;101.85458
 425.31;10388.653;  571.793;10487.493;99.00320
 425.89;10510.782;  541.792;10801.597;97.16549
 426.48;10778.124;  496.793;11180.976;96.22946
 427.07;10812.381;  444.128;11321.627;95.31835
 427.66;10908.571;  473.462;11580.502;93.95040
 428.25;11085.445;  489.460;11632.971;95.08659
 428.84;11306.017;  569.125;11869.479;95.01377
 429.42;11686.989;  500.458;11986.429;97.39300
 430.01;12085.573;  506.791;12271.999;98.41544
 430.60;12488.896;  484.790;12745.959;97.90343
 431.19;12746.287;  539.455;13157.304;96.74257
 431.78;13058.951;  520.121;13415.591;97.23438
 432.36;13252.564;  537.786;13649.819;96.97030
 432.95;13538.314;  522.452;13693.553;98.82137
 433.54;13876.701;  608.120;13995.969;99.10914
 434.13;14215.077;  568.120;14236.707;99.84176
 434.72;14456.616;  538.454;14658.574;98.56971
 435.30;14466.024;  538.453;14802.958;97.63795
 435.89;14632.530;  531.453;14737.794;99.25904
 436.48;14665.569;  545.453;14635.158;100.21584
 437.07;14689.832;  434.785;14684.370;100.03833
 437.66;14767.177;  420.450;14771.322;99.97112
 438.24;15184.436;  446.449;15239.552;99.62741
 438.83;15881.026;  520.448;16026.455;99.06211
 439.42;16399.200;  545.448;16791.285;97.58655
 440.01;16888.202;  547.448;17315.636;97.45093
 440.59;17309.927;  589.449;17733.366;97.53009
 441.18;18161.485;  597.781;18366.571;98.84581
 441.77;18535.245;  578.114;18803.959;98.52565
 442.36;18964.065;  497.447;18959.434;100.02508
 442.94;19013.745;  443.780;18972.432;100.22297
 443.53;19506.935;  452.778;19282.225;101.19340
 444.12;19701.805;  448.111;19517.742;100.96521
 444.70;20015.712;  497.111;19852.348;100.84403
 445.29;20217.397;  525.445;20121.358;100.49009
 445.88;20296.455;  502.109;20351.007;99.72516
 446.47;20428.182;  477.107;20660.340;98.84975
 447.05;20639.252;  441.441;20757.076;99.42004
 447.64;20775.999;  470.441;21129.494;98.28891
 448.23;21145.710;  502.774;21318.197;99.17135
 448.81;21507.456;  503.774;21507.949;99.99765
 449.40;21920.539;  526.774;21533.689;101.84154
 449.99;21674.026;  502.772;21452.439;101.05771
 450.58;21199.939;  534.770;21303.635;99.50071
 451.16;20746.981;  525.437;21007.350;98.72878
 451.75;20311.422;  536.771;20387.789;99.61530
 452.34;19410.368;  522.104;19283.070;100.67853
 452.92;18775.408;  547.438;18575.790;101.10724
 453.51;18775.243;  524.770;18303.925;102.65096
 454.10;20277.620;  522.103;19504.605;104.07225
 454.68;22224.218;  484.436;21374.863;104.06576
 455.27;24303.197;  464.435;23727.146;102.47628
 455.86;26349.253;  449.767;25853.497;101.95151
 456.44;27805.663;  428.433;27134.875;102.51171
 457.03;28952.606;  472.433;28378.472;102.05738
 457.62;29419.714;  494.433;29030.244;101.36485
 458.20;29783.176;  485.099;29952.377;99.42580
 458.79;30132.022;  449.099;30731.212;98.02131
 459.38;30633.592;  451.765;31260.421;97.96541
 459.96;31290.573;  508.431;31659.721;98.81498
 460.55;31519.472;  552.764;31350.281;100.54937
 461.13;31083.951;  516.098;31304.757;99.28283
 461.72;29514.666;  449.430;29316.448;100.68666
 462.31;26608.295;  413.429;26202.382;101.57398
 462.89;24546.232;  452.429;23397.313;105.00730
 463.48;24408.776;  502.096;23416.519;104.33027
 464.07;27605.931;  493.096;27205.678;101.49837
 464.65;31036.338;  488.429;31256.091;99.28577
 465.24;34139.858;  509.762;34859.259;97.90565
 465.82;35547.429;  565.761;36380.438;97.67411
 466.41;36762.912;  575.759;36801.540;99.89337
 467.00;37749.567;  535.760;37561.559;100.50778
 467.58;38241.566;  551.428;38486.254;99.35498
 468.17;38380.180;  546.094;39907.839;96.11892
 468.75;38287.317;  535.426;39725.603;96.32998
 469.34;39007.679;  494.425;39650.594;98.35808
 469.93;39466.784;  451.757;39763.659;99.24482
 470.51;40329.934;  449.756;40404.450;99.81350
 471.10;41068.369;  509.756;40543.223;101.31177
 471.68;41638.625;  531.090;40914.822;101.79231
 472.27;42276.252;  575.757;41746.124;101.28764
 472.85;42466.708;  593.758;43613.614;97.33401
 473.44;43217.783;  562.091;43899.688;98.42653
 474.02;43333.501;  530.757;43918.367;98.65200
 474.61;43645.930;  452.757;42942.135;101.65640
 475.20;43469.566;  491.091;43049.787;100.98635
 475.78;43900.436;  447.423;43856.304;100.10167
 476.37;43992.831;  435.088;44235.631;99.44567
 476.95;43994.008;  442.753;44853.092;98.06558
 477.54;43471.066;  458.421;43987.846;98.81280
 478.12;42333.927;  437.420;42879.679;98.71413
 478.71;40004.267;  416.419;40127.626;99.68936
 479.29;35017.940;  445.753;34895.655;100.35496
 479.88;28348.730;  479.086;28312.776;100.12918
 480.46;21864.524;  500.085;21642.219;101.05148
 481.05;18824.928;  498.087;18615.340;101.15684
 481.63;19802.725;  466.087;19267.823;102.84496
 482.22;22225.403;  404.753;21653.138;102.69322
 482.80;22507.336;  422.086;22634.057;99.42949
 483.39;19916.991;  437.419;20378.690;97.68471
 483.97;16913.391;  481.751;17265.385;97.90276
 484.56;15991.178;  475.084;16005.162;99.90996
 485.14;18881.106;  497.750;18734.409;100.80440
 485.73;24752.108;  493.083;24842.707;99.62792
 486.31;31798.209;  504.082;31765.785;100.10372
 486.90;37293.184;  472.082;36774.752;101.42808
 487.48;40904.658;  468.082;40038.556;102.18876
 488.07;42501.788;  422.749;40908.706;103.93490
 488.65;42991.482;  461.084;41093.118;104.67209
 489.24;42073.552;  493.417;40536.187;103.83931
 489.82;41546.690;  488.749;40845.617;101.73718
 490.41;40817.811;  515.416;40696.084;100.30295
 490.99;40806.681;  498.083;40560.957;100.61335
 491.57;40713.656;  552.749;39689.895;102.61583
 492.16;40560.357;  531.082;38863.254;104.42736
 492.74;39074.196;  546.082;37093.090;105.42071
 493.33;36787.773;  532.747;35499.298;103.68488
 493.91;34975.272;  554.746;34302.416;101.99379
 494.50;34309.545;  532.079;34447.001;99.59470
 495.08;34825.209;  532.412;34995.013;99.50728
 495.66;34927.886;  498.412;35446.024;98.51739
 496.25;35333.223;  489.745;35553.012;99.37316
 496.83;35080.267;  457.412;35105.048;99.92848
 497.42;34110.745;  436.079;34145.863;99.89582
 498.00;31273.716;  424.745;30990.509;100.92655
 498.59;28028.238;  443.078;27881.337;100.53539
 499.17;26277.875;  451.411;25932.627;101.35491
 499.75;26825.216;  444.746;26732.012;100.35456
 500.34;29200.743;  416.080;29101.898;100.34458
 500.92;31498.882;  398.412;31684.012;99.40826
 501.50;33189.172;  416.744;33037.584;100.46470
 502.09;33480.984;  421.076;32748.008;102.26739
 502.67;33517.173;  440.409;32314.859;103.77203
 503.26;33509.320;  478.076;31856.358;105.26785
 503.84;32708.342;  531.075;31605.683;103.54842
 504.42;32007.120;  533.075;31028.110;103.21039
 505.01;31021.217;  536.076;30621.568;101.32838
 505.59;31253.703;  526.409;30282.043;103.26546
 506.17;30957.941;  513.074;29746.217;104.14504
 506.76;30595.644;  517.406;29394.208;104.16056
 507.34;29075.751;  507.073;28333.986;102.66564
 507.93;28094.672;  529.406;27491.924;102.23550
 508.51;27115.309;  488.073;26699.243;101.58736
 509.09;26644.844;  448.740;27050.122;98.47648
 509.68;26282.910;  468.740;26609.513;98.75060
 510.26;26153.777;  514.740;26180.375;99.89637
 510.84;26009.880;  528.073;25423.808;102.35410
 511.43;25490.733;  492.739;25319.309;100.69048
 512.01;24483.803;  485.073;24857.711;98.46587
 512.59;23857.749;  507.073;24543.992;97.14505
 513.17;23291.026;  500.739;23994.588;97.00533
 513.76;23234.732;  482.072;23974.619;96.85054
 514.34;22782.446;  489.739;23284.340;97.79819
 514.92;22925.747;  514.739;22755.975;100.76332
 515.51;22460.793;  496.405;21954.338;102.36022
 516.09;22313.248;  477.738;21834.109;102.24354
 516.67;22094.305;  475.071;21512.150;102.76728
 517.26;21994.906;  553.738;21235.782;103.67045
 517.84;21900.824;  590.405;20603.709;106.48126
 518.42;21343.434;  581.737;19790.587;108.08402
 519.00;20866.325;  530.402;19174.429;109.07474
 519.59;20376.129;  584.403;18955.911;107.73055
 520.17;19606.424;  581.737;19085.237;102.81670
 520.75;19155.792;  557.403;19072.263;100.45115
 521.33;18773.779;  469.737;18935.258;99.12551
 521.92;18450.903;  478.737;18657.409;98.86402
 522.50;18139.205;  460.404;18118.038;100.11988
 523.08;17412.609;  461.070;17652.744;98.60319
 523.67;17067.803;  431.069;17253.911;98.89372
 524.25;16969.189;  470.402;17114.636;99.12614
 524.83;16951.101;  444.736;16978.557;99.83394
 525.41;17090.839;  493.402;16857.287;101.42724
 525.99;16817.298;  456.402;16534.402;101.75952
 526.58;16898.925;  432.068;16161.015;104.69141
 527.16;16600.310;  400.401;15988.717;103.92340
 527.74;16348.644;  429.735;16079.407;101.72040
 528.32;16054.313;  518.736;15941.424;100.73197
 528.91;15875.195;  497.735;15718.279;101.03095
 529.49;15997.264;  531.401;15369.657;104.22965
 530.07;15798.164;  525.067;15279.545;103.51500
 530.65;15666.443;  576.400;15155.802;103.50248
 531.23;15356.544;  525.065;15213.856;100.97140
 531.82;15321.100;  519.065;15197.067;100.84503
 532.40;14994.678;  483.066;15188.351;98.68297
 532.98;14836.332;  499.734;15224.042;97.36687
 533.56;14681.426;  480.068;15245.149;96.18205
 534.14;14980.770;  504.401;15379.826;97.31735
 534.73;14856.276;  482.067;15097.995;98.34619
 535.31;15044.804;  510.067;14906.519;100.96055
 535.89;14923.505;  473.734;14736.878;101.30846
 536.47;15134.343;  536.733;14854.690;101.95316
 537.05;15113.616;  489.732;14859.609;101.76764
 537.63;15087.777;  492.733;14695.773;102.76000
 538.22;15085.504;  455.400;14530.521;103.94300
 538.80;14934.418;  485.732;14644.074;102.05069
 539.38;14890.665;  482.398;14859.937;100.21372
 539.96;14889.137;  492.731;15197.081;97.90576
 540.54;15374.623;  465.732;15287.608;100.58707
 541.12;15521.173;  470.399;15435.509;100.57243
 541.70;16050.954;  497.732;15552.924;103.30803
 542.29;16186.831;  489.398;15589.797;103.95377
 542.87;16834.723;  473.398;15699.025;107.45913
 543.45;16811.174;  397.064;15707.428;107.20914
 544.03;16676.236;  463.397;15995.807;104.38070
 544.61;16188.406;  548.398;16366.374;98.87490
 545.19;15864.379;  589.066;16542.043;95.75211
 545.77;15849.602;  518.398;16639.891;95.09792
 546.35;16011.663;  462.064;16273.277;98.34539
 546.93;16505.045;  461.064;16238.324;101.69054
 547.52;16674.055;  552.731;16090.645;103.75475
 548.10;16699.904;  519.064;16191.164;103.24615
 548.68;16394.831;  521.730;15957.744;102.83160
 549.26;16225.000;  419.730;15984.902;101.54253
 549.84;16395.256;  453.397;16093.501;101.92937
 550.42;16657.310;  441.397;16409.220;101.55369
 551.00;17036.586;  473.730;16647.156;102.40783
 551.58;17005.123;  513.063;16821.334;101.12697
 552.16;16915.478;  534.729;16883.355;100.19649
 552.74;16790.441;  558.397;16925.341;99.17578
 553.32;16792.686;  496.396;16770.573;100.13588
 553.90;16959.623;  505.729;17015.807;99.65970
 554.48;16728.669;  445.395;17097.838;97.78310
 555.06;16701.892;  459.396;17281.767;96.55295
 555.64;17001.182;  460.063;17447.754;97.37120
 556.23;17556.308;  501.062;17399.174;100.92989
 556.81;18133.064;  493.728;17843.580;101.66851
 557.39;18028.585;  424.729;17828.800;101.14792
 557.97;17881.773;  413.063;18476.347;96.70838
 558.55;17607.416;  436.730;18259.309;96.34232
 559.13;17891.949;  476.061;18293.452;97.74657
 559.71;18089.568;  477.061;18162.398;99.58819
 560.29;18795.373;  490.062;18686.904;100.59609
 560.87;18516.187;  506.729;18896.374;97.93260
 561.45;18662.564;  534.394;18886.053;98.78219
 562.03;18406.385;  524.727;18931.523;97.14705
 562.61;19016.854;  511.394;19347.678;98.24369
 563.19;19440.537;  472.729;19461.390;99.89018
 563.77;19982.601;  447.729;19509.786;102.48040
 564.35;20086.895;  432.062;19591.422;102.58606
 564.93;20286.865;  453.062;19940.718;101.77624
 565.51;20289.217;  483.728;20134.055;100.78962
 566.09;20623.277;  510.395;20008.803;103.15141
 566.67;20330.782;  512.063;19981.674;101.79309
 567.25;20345.738;  482.063;20013.965;101.69862
 567.83;20492.220;  484.729;20329.405;100.82044
 568.40;20797.259;  461.394;20360.741;102.19363
 568.98;21291.631;  506.060;20598.415;103.45015
 569.56;21407.130;  492.727;20803.585;102.97154
 570.14;21544.019;  520.395;21071.520;102.29914
 570.72;21367.326;  503.062;20942.850;102.07671
 571.30;21276.372;  490.729;21045.577;101.12283
 571.88;21471.255;  461.730;21379.144;100.44036
 572.46;21532.105;  449.729;21797.634;98.75618
 573.04;22112.115;  473.061;22060.259;100.24022
 573.62;22340.416;  515.727;22343.560;99.98559
 574.20;22604.686;  473.729;22469.877;100.61288
 574.78;22632.040;  457.061;22453.541;100.81149
 575.36;22964.226;  437.727;22413.352;102.50675
 575.94;23329.767;  526.727;22510.904;103.72479
 576.52;23542.602;  504.061;22583.090;104.34581
 577.09;23725.851;  542.395;22620.690;105.00565
 577.67;23158.324;  458.062;22729.833;101.92392
 578.25;22952.331;  471.061;23019.832;99.70064
 578.83;22901.790;  423.394;23063.948;99.28377
 579.41;23443.767;  455.395;23036.623;101.80302
 579.99;23416.725;  450.729;23411.937;100.02085
 580.57;23498.679;  490.728;24218.854;96.96489
 581.15;23743.482;  497.061;24733.980;95.91327
 581.73;24443.649;  554.395;25161.506;97.08272
 582.30;24658.619;  527.729;24936.492;98.86158
 582.88;24914.906;  569.395;25087.433;99.29633
 583.46;24877.962;  522.062;24728.479;100.61753
 584.04;25126.928;  547.062;24836.787;101.19450
 584.62;25205.665;  539.061;25114.493;100.37099
 585.20;25122.740;  521.727;24897.210;100.92523
 585.78;25412.113;  468.062;24650.294;103.15033
 586.35;25435.745;  405.729;24800.297;102.60487
 586.93;25425.929;  403.729;25198.114;100.91882
 587.51;25128.095;  423.727;25108.565;100.07912
 588.09;24820.338;  517.727;24424.802;101.65447
 588.67;24562.817;  508.060;24371.945;100.79984
 589.25;23983.244;  538.060;24598.695;97.44208
 589.82;24012.886;  449.060;24873.686;96.47569
 590.40;23786.634;  484.395;24729.485;96.11117
 590.98;23406.565;  444.730;24134.129;96.92874
 591.56;22257.746;  448.730;22998.321;96.71580
 592.14;21182.631;  411.730;21901.216;96.65611
 592.71;20206.522;  428.064;20554.783;98.26966
 593.29;19547.580;  505.731;19749.514;98.95065
 593.87;19407.708;  543.398;18991.313;102.25714
 594.45;19509.162;  554.731;19764.446;98.67107
 595.03;20203.618;  597.398;20683.240;97.61214
 595.60;20687.084;  582.731;21527.022;95.98966
 596.18;20981.989;  555.397;21696.587;96.61987
 596.76;20938.419;  441.732;21115.712;99.14243
 597.34;20731.037;  497.400;21024.050;98.57252
 597.91;20787.447;  528.734;21255.480;97.74189
 598.49;20604.486;  538.733;21894.178;93.96083
 599.07;20985.507;  465.066;21915.176;95.66590
 599.65;21555.988;  467.065;21701.617;99.31419
 600.22;22293.011;  492.065;21567.965;103.44017
 600.80;22860.514;  553.065;21845.813;104.76548
 601.38;22573.233;  536.065;22027.538;102.53912
 601.96;22228.256;  475.398;22191.887;100.16748
 602.53;21564.277;  445.731;21996.551;97.99416
 603.11;21690.503;  406.731;21613.446;100.36336
 603.69;22140.302;  431.732;21846.946;101.36985
 604.27;22561.762;  487.399;22310.085;101.15328
 604.84;22917.520;  513.065;22756.485;100.72397
 605.42;22704.223;  523.065;22740.861;99.83509
 606.00;22652.091;  445.400;22404.769;101.12627
 606.57;22514.113;  476.734;22235.814;101.27900
 607.15;22895.599;  513.734;22064.651;103.85574
 607.73;23237.942;  532.734;21902.335;106.25003
 608.31;23270.548;  505.734;21672.253;107.55105
 608.88;22855.285;  480.400;21616.655;105.86021
 609.46;22283.701;  502.734;21515.418;103.65628
 610.04;22034.790;  497.734;21999.854;100.16248
 610.61;21553.564;  460.402;21956.322;98.12635
 611.19;21322.753;  453.403;21975.202;96.96843
 611.77;20885.213;  440.736;21768.008;95.86072
 612.34;20580.320;  447.402;21688.090;94.78468
 612.92;20430.706;  412.402;21559.453;94.66239
 613.50;20509.281;  425.068;20826.363;98.44577
 614.07;21142.122;  466.068;20818.860;101.58830
 614.65;21561.942;  497.068;21232.001;101.59123
 615.23;21519.468;  496.400;21795.168;98.70556
 615.80;21515.169;  468.400;21864.527;98.36719
 616.38;21083.916;  468.734;21410.969;98.43831
 616.96;21476.702;  504.068;21432.108;100.21308
 617.53;21586.825;  470.736;21578.265;100.04055
 618.11;22027.360;  453.070;21749.507;101.30469
 618.68;22104.357;  429.736;21698.156;101.90988
 619.26;22273.344;  426.069;21465.462;103.83985
 619.84;22717.511;  419.070;21049.321;108.08613
 620.41;22792.619;  413.736;20707.064;110.27705
 620.99;22460.010;  474.734;20494.076;109.82017
 621.56;21953.094;  463.735;21003.506;104.62317
 622.14;21891.389;  490.402;21727.498;100.77172
 622.72;21959.957;  471.737;22017.432;99.73324
 623.29;21733.039;  541.070;21627.868;100.49875
 623.87;21283.309;  528.404;20867.465;102.04456
 624.44;21015.984;  567.403;20730.459;101.41608
 625.02;20786.875;  571.403;20761.359;100.12638
 625.60;20572.328;  508.071;20594.165;99.89128
 626.17;20457.077;  452.070;20356.238;100.50662
 626.75;20535.621;  417.070;20108.777;102.16763
 627.32;20857.783;  482.404;20397.298;102.31226
 627.90;20942.294;  481.072;20189.835;103.81789
 628.47;20941.488;  520.072;20505.692;102.18055
 629.05;20194.903;  528.737;20355.409;99.19046
 629.63;19756.611;  538.071;20163.123;97.92861
 630.20;20074.712;  482.072;19884.926;100.97814
 630.78;20859.504;  446.072;19751.374;105.74003
 631.35;20846.768;  439.404;19873.277;105.00925
 631.93;20083.789;  429.737;19749.941;101.72797
 632.50;19490.708;  429.070;19674.529;99.04486
 633.08;19647.319;  428.405;19411.534;101.24208
 633.65;19972.491;  479.073;19680.762;101.51929
 634.23;20158.738;  493.074;19964.344;100.99836
 634.80;20310.328;  510.406;20360.247;99.74852
 635.38;20514.714;  485.406;20356.972;100.79381
 635.95;20314.439;  491.741;20301.059;100.06754
 636.53;19688.675;  491.074;19753.631;99.66279
 637.10;19087.685;  450.741;19100.981;99.92871
 637.68;18967.614;  430.742;18895.608;100.38996
 638.25;19115.502;  444.075;19187.491;99.61592
 638.83;19759.855;  488.407;19372.133;102.05321
 639.40;20390.845;  518.740;19560.426;104.36106
 639.98;20579.453;  480.740;19328.058;106.63964
 640.55;20184.802;  468.739;19233.362;105.07039
 641.13;19778.287;  412.739;19050.844;103.90299
 641.70;19457.772;  437.405;19352.992;100.55393
 642.28;19184.924;  420.072;19873.474;96.46052
 642.85;19333.076;  449.739;20042.623;96.37855
 643.42;19712.228;  443.738;20040.438;98.32518
 644.00;19697.713;  482.405;19687.920;100.05099
 644.57;19604.865;  460.738;19310.402;101.56217
 645.15;19451.017;  502.738;19125.217;101.74950
 645.72;19568.503;  482.071;19133.699;102.33118
 646.30;19018.321;  511.738;19139.847;99.34762
 646.87;18838.473;  461.071;19119.663;98.49298
 647.45;18648.625;  455.071;19167.811;97.22549
 648.02;18458.444;  449.404;18860.626;97.81556
 648.59;18276.596;  431.738;18576.442;98.34747
 649.17;18563.748;  479.071;18128.257;102.46748
 649.74;19019.900;  487.071;18143.739;104.96221
 650.32;19274.385;  545.404;18329.221;105.31474
 650.89;18880.537;  471.404;18665.703;101.18078
 651.46;18519.689;  496.737;18714.184;98.93237
 652.04;18358.841;  492.404;18304.000;100.30790
 652.61;18374.993;  517.070;17791.815;103.37590
 653.19;18277.478;  498.737;17440.630;104.93952
 653.76;18097.297;  472.403;17384.445;104.21505
 654.33;18479.782;  492.403;17307.261;106.97313
 654.91;19128.267;  489.737;17447.743;109.90992
 655.48;19085.753;  546.736;17438.891;109.74927
 656.05;18045.571;  532.070;17402.040;103.81466
 656.63;17259.390;  541.403;17323.188;99.61984
 657.20;17025.875;  517.403;17805.337;95.49130
 657.78;17133.027;  520.069;18052.485;94.75567
 658.35;17431.846;  460.736;17933.634;97.12819
 658.92;17760.664;  459.403;17492.116;101.57666
 659.50;18574.816;  441.402;17315.931;107.46027
 660.07;18650.302;  465.402;17411.746;107.30869
 660.64;18824.453;  440.069;17495.895;107.78947
 661.22;18453.272;  449.069;17763.377;103.98454
 661.79;18689.091;  470.402;17818.525;105.01821
 662.36;18437.576;  469.402;17750.674;103.97484
 662.93;18182.728;  468.735;17561.156;103.63654
 663.51;17517.880;  466.068;17502.638;100.08947
 664.08;17467.699;  451.402;17357.786;100.65012
 664.65;17483.850;  418.735;17574.268;99.47295
 665.23;17728.669;  402.735;17875.750;99.15824
 665.80;18190.154;  393.068;18026.232;100.92963
 666.37;18806.306;  550.401;17798.380;105.84373
 666.95;18865.458;  551.068;17671.529;106.97370
 667.52;18596.277;  524.735;17967.344;103.60573
 668.09;17949.429;  358.068;18220.826;98.48065
 668.66;17994.247;  360.734;18371.975;97.90283
 669.24;18280.399;  471.401;18506.790;98.74474
 669.81;18265.551;  486.401;18504.605;98.67327
 670.38;18033.703;  467.734;18224.087;98.92780
 670.95;17600.855;  445.734;17919.569;98.17605
 671.53;17760.674;  475.067;17783.384;99.86879
 672.10;18227.159;  510.400;17679.533;103.18960
 672.67;18050.644;  485.734;17345.681;104.18129
 673.24;18157.463;  465.734;17072.163;106.53542
 673.82;17649.615;  467.400;17258.645;102.32842
 674.39;17796.767;  502.067;17276.127;103.10384
 674.96;17567.919;  515.067;17400.275;100.99284
 675.53;17644.404;  508.067;17045.424;103.62198
 676.11;17711.223;  432.066;17513.239;101.15908
 676.68;17645.375;  419.066;17636.388;100.05220
 677.25;17531.193;  432.400;17780.536;98.56271
 677.82;16968.345;  439.066;17371.352;97.61990
 678.39;17072.164;  432.066;17075.500;99.97996
 678.97;17169.649;  431.399;17573.982;97.64135
 679.54;18022.801;  456.066;17766.464;101.48083
 680.11;18484.287;  477.399;18129.946;102.00731
 680.68;19071.438;  445.399;18228.761;104.73857
 681.25;19189.257;  424.732;18222.243;105.43342
 681.83;19010.076;  397.065;18152.058;104.83254
 682.40;18769.561;  415.399;18205.207;103.17235
 682.97;18397.046;  447.399;18828.355;97.65350
 683.54;18229.532;  457.399;19138.504;95.13427
 684.11;18287.684;  465.732;19009.319;96.10844
 684.68;18614.835;  465.065;18950.134;98.18611
 685.26;18930.654;  455.732;19255.616;98.27147
 685.83;18937.139;  418.398;19024.431;99.53084
 686.40;18907.625;  419.398;18503.580;102.23424
 686.97;18820.777;  398.731;18161.728;103.71023
 687.54;19326.595;  455.731;18796.210;102.89188
 688.11;19172.414;  411.731;19077.026;100.51105
 688.68;18437.566;  446.398;19084.174;96.53066
 689.26;17867.384;  421.064;18793.989;94.95668
 689.83;18484.203;  444.731;18897.138;97.76216
 690.40;19556.688;  447.397;18671.620;104.85655
 690.97;19777.840;  403.397;18758.102;105.55573
 691.54;19011.659;  426.731;18933.250;100.42368
 692.11;18293.811;  450.064;19164.399;95.34802
 692.68;18309.629;  518.397;18903.881;96.76782
 693.25;19135.448;  608.397;18559.696;103.20730
 693.82;19719.600;  665.730;18518.178;106.72973
 694.40;19576.419;  626.730;18257.326;107.48184
 694.97;18876.904;  485.063;18401.142;102.65550
 695.54;18456.723;  393.730;18982.290;97.17263
 696.11;18696.541;  397.396;20150.105;92.64119
 696.68;18955.360;  408.063;20755.921;91.15110
 697.25;19349.845;  398.063;20463.736;94.44877
 697.82;19367.330;  410.730;19927.218;97.13121
 698.39;19475.149;  416.396;19726.700;98.69732
 698.96;19841.968;  443.396;20105.182;98.66129
 699.53;19680.120;  438.729;19727.330;99.75524
 700.10;19714.938;  442.396;19281.812;102.29904
 700.67;19053.757;  421.396;18632.961;102.31060
 701.24;18929.242;  395.396;18978.109;99.73703
 701.81;19063.394;  394.396;19136.924;99.60768
 702.38;19055.879;  372.062;19660.073;96.86752
 702.95;18942.698;  374.729;19786.888;95.65123
 703.52;18652.183;  382.729;20015.037;93.05811
 704.09;19088.669;  401.728;19677.185;96.94681
 704.66;19654.487;  455.728;19568.000;100.45252
 705.23;19764.639;  412.728;19257.816;102.68942
 705.80;19614.791;  436.728;19628.631;99.92789
 706.37;19775.610;  393.395;19556.779;101.14192
 706.94;20238.762;  432.061;19584.595;103.41556
 707.51;20694.247;  448.395;19760.077;104.83733
 708.08;20644.066;  478.394;20043.558;103.06927
 708.65;20364.551;  449.728;20189.040;100.88914
 709.22;20275.703;  456.728;19651.856;103.25003
 709.79;19816.521;  440.728;19270.004;102.90249
 710.36;19393.007;  450.394;19369.153;100.12609
 710.93;19068.825;  395.394;19795.635;96.25361
 711.50;19319.977;  380.394;19919.117;96.93358
 712.07;20268.796;  372.394;19608.598;103.43206
 712.64;21009.281;  379.060;19669.080;106.94764
 713.21;21456.100;  367.727;19819.896;108.41142
 713.78;21105.585;  373.060;20445.711;103.28743
 714.35;20750.404;  391.727;20508.859;101.20069
 714.92;20403.556;  397.727;20435.008;99.84303
 715.49;20155.041;  383.727;20004.823;100.76559
 716.06;19673.193;  384.060;19788.972;99.40335
 716.63;19847.345;  395.393;19764.120;100.42969
 717.20;20039.163;  410.726;19413.602;103.29193
 717.77;20458.649;  406.393;19021.417;107.72081
 718.34;19969.801;  397.393;18766.233;106.55223
 718.90;19282.953;  410.726;18770.381;102.79184
 719.47;18948.771;  401.726;18791.863;100.85322
 720.04;18982.257;  395.392;19031.345;99.73659
 720.61;19224.742;  379.392;19153.493;100.37950
 721.18;19537.560;  360.059;18889.975;103.49481
 721.75;19762.046;  338.059;18564.124;106.57258
 722.32;19838.531;  337.392;18622.939;106.64783
 722.89;19390.016;  365.725;19100.088;101.54758
 723.46;19783.502;  415.059;19353.903;102.26835
 724.02;20105.320;  457.392;19584.718;102.72177
 724.59;20615.806;  460.392;19350.533;106.69806
 725.16;20390.624;  443.392;19297.349;105.79865
 725.73;19953.776;  397.725;19182.164;104.10772
 726.30;19623.928;  376.391;19355.979;101.41177
 726.87;19158.413;  365.725;19694.128;97.22836
 727.44;19362.232;  368.391;19432.276;99.63258
 728.00;20060.384;  401.058;19773.091;101.48303
 728.57;20561.869;  398.058;19477.573;105.68304
 729.14;21529.688;  387.391;19822.055;108.78653
 729.71;21490.173;  376.724;19459.870;110.63925
 730.28;21595.658;  360.724;19419.686;111.41706
 730.85;20456.144;  362.391;19200.834;106.66355
 731.41;19414.296;  436.391;18486.316;105.14118
 731.98;18635.448;  475.057;18390.798;101.36556
 732.55;18779.933;  490.390;18782.947;99.98353
 733.12;19315.418;  427.724;19671.762;98.14829
 733.69;19558.570;  415.390;20102.244;97.23839
 734.25;19620.389;  410.390;20019.726;97.96354
 734.82;19807.207;  391.057;20139.207;98.31883
 735.39;19926.026;  365.390;20063.356;99.30282
 735.96;19760.511;  346.057;19865.838;99.46041
 736.52;19823.997;  366.390;20000.653;99.10026
 737.09;20101.148;  399.056;20167.468;99.66452
 737.66;20403.967;  424.056;20759.284;98.25270
 738.23;19562.119;  386.056;20092.099;97.31057
 738.80;18923.938;  365.056;19611.581;96.42718
 739.36;19327.090;  358.723;18943.063;102.06640
 739.93;20579.242;  378.389;18936.544;108.85162
 740.50;21239.394;  407.056;18826.360;113.10057
 741.07;20948.545;  412.056;18972.175;110.64848
 741.63;21033.364;  401.389;19638.657;107.25003
 742.20;21125.183;  376.722;19771.139;106.98162
 742.77;21016.001;  378.389;19531.287;107.75190
 743.33;20536.153;  380.055;19106.102;107.63669
 743.90;20720.639;  402.055;19501.251;106.38450
 744.47;20843.124;  412.722;20240.066;103.04155
 745.04;21415.942;  431.722;20933.215;102.35460
 745.60;21465.428;  440.388;20843.363;103.04889
 746.17;21578.913;  530.055;20547.512;105.15251
 746.74;20743.732;  502.388;19924.994;104.21539
 747.30;20669.884;  495.055;20715.809;99.77288
 747.87;21019.702;  393.055;21450.958;97.95205
 748.44;21521.188;  450.054;22028.106;97.65077
 749.00;21584.673;  441.721;21890.255;98.57528
 749.57;21600.491;  444.054;21725.070;99.41460
 750.14;21681.643;  397.721;21991.219;98.56635
 750.70;21660.462;  363.387;21818.700;99.26247
 751.27;21680.614;  387.721;21675.516;100.02395
 751.84;21406.433;  358.387;21091.998;101.51655
 752.40;21123.251;  402.054;21323.479;99.04295
 752.97;20927.737;  401.720;21319.961;98.12496
 753.54;21369.222;  429.720;21323.777;100.21750
 754.10;21807.374;  404.054;21391.592;101.98109
 754.67;22153.859;  436.053;21536.407;102.92626
 755.24;22316.344;  438.720;21920.222;101.84401
 755.80;22373.163;  443.053;21607.371;103.61832
 756.37;22217.315;  376.386;21613.519;102.84311
 756.94;22326.467;  396.720;22113.668;100.97988
 757.50;22383.285;  380.053;22258.150;100.57197
 758.07;22233.104;  373.386;22431.298;99.10148
 758.63;21836.256;  337.719;22199.447;98.33869
 759.20;22029.741;  397.053;22591.262;97.46997
 759.77;22527.893;  421.053;22920.077;98.25688
 760.33;23230.379;  440.052;22925.226;101.35713
 760.90;23261.864;  374.719;22471.708;103.57585
 761.46;23148.682;  379.052;21760.523;106.49235
 762.03;22996.834;  365.386;21761.005;105.77609
 762.60;23506.653;  450.719;22570.153;104.23383
 763.16;24150.138;  460.052;22878.302;105.67322
 763.73;24066.624;  485.385;22536.451;106.93922
 764.29;23785.442;  405.052;22107.599;107.73109
 764.86;23164.928;  383.718;21977.081;105.50098
 765.42;23536.746;  363.718;22619.563;104.12109
 765.99;23420.565;  370.385;22735.711;103.06212
 766.55;23038.050;  392.385;23092.193;99.76148
 767.12;22479.535;  398.718;22579.342;99.55003
 767.68;22362.687;  410.718;22369.490;99.96902
 768.25;22638.839;  380.051;22284.306;101.61856
 768.82;23021.991;  350.718;22295.121;103.31233
 769.38;23669.476;  389.051;22645.603;104.60032
 769.95;24336.295;  389.384;23549.085;103.39905
 770.51;24078.780;  408.051;24284.900;99.13674
 771.08;23198.932;  378.051;23650.382;98.06014
 771.64;22291.751;  344.717;22731.864;98.03408
 772.21;22219.570;  418.050;22328.346;99.50354
 772.77;22626.388;  416.050;22169.494;102.10033
 773.34;23271.207;  454.050;21831.643;106.73399
 773.90;23693.359;  389.050;21070.458;112.68241
 774.47;23843.177;  411.717;20875.940;114.49963
 775.03;23854.996;  429.050;21079.422;113.44080
 775.60;23470.481;  450.050;21690.904;108.37809
 776.16;22924.967;  439.716;22072.052;103.94278
 776.73;22647.452;  445.383;22032.201;102.85012
 777.29;22438.270;  429.383;21455.016;104.67646
 777.85;22297.089;  397.383;21414.165;104.20105
 778.42;22414.908;  423.716;21745.980;103.13723
 778.98;22187.726;  408.383;22017.128;100.78949
 779.55;22182.878;  412.716;22135.944;100.21606
 780.11;22203.030;  376.716;22074.092;100.59426
 780.68;22895.182;  393.382;22539.241;101.60726
 781.24;23296.334;  382.382;22990.389;101.35326
 781.81;22962.153;  360.716;22431.538;102.40415
 782.37;22579.638;  375.049;22027.020;102.55228
 782.93;22578.457;  400.382;21621.502;104.50945
 783.50;22552.609;  409.382;22023.983;102.44569
 784.06;22338.761;  376.382;22132.799;100.94667
 784.63;22559.579;  379.048;22028.947;102.45097
 785.19;22817.064;  387.048;21763.429;104.92897
 785.75;23145.216;  410.382;21401.578;108.30652
 786.32;22987.035;  418.715;21383.393;107.64926
 786.88;22966.854;  424.715;21538.541;106.76482
 787.45;22778.006;  390.715;21774.690;104.69190
 788.01;22299.491;  357.381;21860.839;102.03992
 788.57;22206.310;  339.714;22271.987;99.70054
 789.14;22381.795;  354.714;22843.469;97.94709
 789.70;22861.280;  358.381;22841.618;100.08745
 790.26;22819.099;  368.047;21801.766;104.74641
 790.83;22776.584;  372.047;20550.248;111.03337
 791.39;22388.069;  359.381;20172.063;111.18479
 791.95;21747.888;  365.047;20659.879;105.36102
 792.52;21622.373;  372.714;21805.694;99.14468
 793.08;22219.192;  390.047;22321.842;99.53196
 793.64;22774.010;  372.714;22560.324;100.96309
 794.21;22824.496;  352.380;22803.473;100.09364
 794.77;22135.314;  362.047;22277.288;99.35217
 795.33;22087.800;  389.713;21750.770;101.57778
 795.90;22351.618;  391.713;21123.585;105.92341
 796.46;22308.437;  395.713;21162.400;105.51863
 797.02;21774.589;  394.380;21530.882;101.15301
 797.59;20979.407;  403.380;21177.031;99.04868
 798.15;20754.893;  464.379;21131.846;98.17610
 798.71;20756.711;  456.713;20990.328;98.86227
 799.28;20751.197;  457.379;21199.810;97.83722
 799.84;20499.682;  374.713;21108.625;97.06306
 800.40;20144.167;  354.379;20607.107;97.71419
 800.96;20224.653;  353.379;20254.589;99.84958
 801.53;20549.138;  361.046;20295.404;101.27285
 802.09;21299.290;  356.045;20275.553;105.13937
 802.65;21531.108;  365.379;20067.368;107.42940
 803.21;21589.260;  381.045;20432.516;105.76887
 803.78;21194.746;  386.712;20642.998;102.72383
 804.34;20632.231;  420.712;20699.480;99.66838
 804.90;19928.716;  410.378;20094.962;99.15545
 805.46;19936.868;  447.045;20010.777;99.62221
 806.03;20485.353;  438.712;20266.259;101.10500
 806.59;20866.172;  444.711;20256.408;103.07780
 807.15;21013.657;  433.045;20078.890;104.75809
 807.71;20748.143;  408.045;19648.705;105.71414
 808.28;20878.295;  415.711;19655.853;106.35360
 808.84;20727.113;  414.044;19788.335;104.84548
 809.40;20374.932;  424.378;19894.817;102.46586
 809.96;20091.417;  418.711;19552.299;102.81765
 810.52;19871.569;  403.044;19407.114;102.44398
 811.09;19632.721;  395.377;19640.596;99.95908
 811.65;19862.540;  419.711;19897.411;99.82097
 812.21;19741.025;  412.710;19744.893;99.97999
 812.77;19544.510;  418.044;19008.375;102.88395
 813.33;18499.329;  377.710;18369.190;100.72333
 813.90;18141.481;  381.377;18218.672;99.56725
 814.46;17849.299;  382.710;18430.488;96.77972
 815.02;18293.451;  362.377;18944.969;96.49393
 815.58;18374.603;  379.043;19141.451;95.91285
 816.14;18946.089;  394.376;18947.933;99.99006
 816.70;18899.907;  447.043;18689.415;101.15386
 817.26;19126.392;  420.376;17993.230;106.44837
 817.83;19298.544;  364.043;17728.712;109.04038
 818.39;18795.696;  355.709;16927.861;111.27093
 818.95;18194.848;  390.709;16724.009;109.00516
 819.51;17730.334;  419.709;16210.158;109.62719
 820.07;17946.486;  414.376;15921.306;113.05983
 820.63;18430.638;  378.042;15917.788;116.17046
 821.19;18264.123;  372.709;16503.270;110.91625
 821.75;18048.941;  348.709;16666.085;108.47474
 822.32;17558.760;  382.709;16555.901;106.20075
 822.88;17271.579;  402.709;16101.716;107.45183
 823.44;17052.397;  385.375;16620.864;102.65796
 824.00;16842.549;  402.708;16768.346;100.45341
 824.56;16759.701;  388.042;16731.828;100.17054
 825.12;16855.520;  443.708;16567.310;101.78750
 825.68;16802.005;  421.042;16480.792;102.00011
 826.24;16515.157;  407.041;16248.274;101.68474
 826.80;16762.976;  391.041;16301.423;102.90096
 827.36;16692.461;  386.375;16151.238;103.43310
 827.92;16701.613;  399.374;16267.720;102.73433
 828.48;16367.432;  376.041;16188.535;101.13136
 829.04;16317.917;  400.374;16662.350;97.88197
 829.60;16164.069;  394.374;16799.832;96.12468
 830.17;16326.221;  444.707;16671.647;97.87128
 830.73;16362.373;  390.374;16006.129;102.28131
 831.29;16607.858;  388.707;15760.611;105.51166
 831.85;16011.343;  368.040;15012.760;106.81873
 832.41;15635.829;  407.040;14982.908;104.47946
 832.97;15334.980;  400.374;15154.057;101.22630
 833.53;15303.799;  378.040;15648.205;97.74458
 834.09;15248.618;  358.040;15576.020;97.84858
 834.65;15087.770;  403.040;14875.502;101.46670
 835.21;15003.255;  381.707;14307.318;104.99754
 835.77;14775.407;  380.373;13841.799;106.93543
 836.33;14654.559;  337.040;13653.615;107.51653
 836.89;14764.377;  354.373;13893.430;106.43285
 837.45;14854.863;  372.040;14111.912;105.40726
 838.01;15118.681;  365.373;14352.727;105.47605
 838.57;15320.833;  368.706;14142.209;108.55719
 839.13;15837.652;  357.706;14418.691;110.09148
 839.69;15932.137;  390.373;14541.839;109.82441
 840.24;15435.623;  418.039;14573.655;106.08923
 840.80;14903.774;  413.372;14173.470;105.30741
 841.36;14679.593;  420.372;14339.618;102.44248
 841.92;14762.078;  382.039;14360.767;102.87087
 842.48;14364.564;  379.705;14231.249;100.96245
 843.04;14083.716;  355.039;13915.397;101.24125
 843.60;13892.534;  374.039;13813.213;100.59023
 844.16;14127.353;  391.038;13798.361;102.45382
 844.72;14281.838;  401.038;13892.843;102.88320
 845.28;14408.323;  449.372;14675.658;98.12084
 845.84;14768.475;  461.705;15565.807;94.72109
 846.40;14773.627;  439.371;15814.955;93.22739
 846.96;14810.446;  385.038;15199.437;97.37424
 847.52;14347.931;  397.371;14285.253;100.45132
 848.07;14020.750;  442.704;13662.068;102.71331
 848.63;13872.235;  457.704;13693.883;101.34746
 849.19;13854.720;  404.371;13916.032;99.54624
 849.75;13787.872;  398.037;13944.847;98.84124
 850.31;13685.358;  373.371;13747.995;99.53167
 850.87;13817.843;  434.037;13583.811;101.77975
 851.43;13693.662;  400.704;13086.626;104.78511
 851.99;13506.480;  436.037;12522.441;108.14170
 852.54;13269.299;  380.370;12295.590;108.17198
 853.10;13414.117;  400.704;12919.738;103.94902
 853.66;13488.269;  376.370;13200.220;102.24620
 854.22;13390.755;  387.037;13075.702;102.48295
 854.78;13419.240;  361.370;12893.850;104.19222
 855.34;13671.392;  343.037;12925.332;105.92944
 855.89;13599.877;  345.036;13186.814;103.21656
 856.45;13265.029;  362.370;13034.296;101.82082
 857.01;12783.848;  435.703;13122.778;97.32854
 857.57;12463.000;  431.036;13027.927;95.51535
 858.13;12405.818;  445.703;13079.075;94.67081
 858.69;12775.970;  384.703;12890.557;99.08374
 859.24;13491.789;  361.369;12733.039;106.13296
 859.80;13758.608;  331.369;12606.187;109.38849
 860.36;13351.093;  331.702;12331.336;108.49823
 860.92;12687.245;  356.369;12080.818;105.17233
 861.47;12741.730;  344.702;12137.300;105.12551
 862.03;12843.549;  329.035;12220.115;105.24287
 862.59;12452.367;  350.035;12141.597;102.63553
 863.15;12185.853;  353.369;12184.079;100.01499
 863.71;12297.338;  363.702;12724.894;96.54114
 864.26;12896.823;  347.702;13458.376;95.71683
 864.82;13349.308;  360.702;13703.191;97.34770
 865.38;13679.127;  367.035;13527.340;101.15337
 865.94;14007.279;  354.035;13256.822;105.81624
 866.49;13705.764;  349.701;12865.970;106.70962
 867.05;13072.250;  380.368;12372.119;105.83844
 867.61;12749.068;  367.034;11909.267;107.27590
 868.16;12585.220;  366.368;11562.083;109.13865
 868.72;12565.372;  344.034;11612.898;108.45227
 869.28;12446.857;  371.034;11874.046;104.97966
 869.84;12465.009;  368.367;12161.195;102.57627
 870.39;12622.161;  372.367;12307.010;102.64064
 870.95;12438.980;  371.367;12030.159;103.50655
 871.51;12553.799;  363.367;12129.641;103.60486
 872.06;12619.284;  337.367;12195.122;103.57708
 872.62;12857.102;  338.034;12401.604;103.77582
 873.18;12575.588;  340.700;12212.753;103.05621
 873.73;12475.406;  382.367;11674.235;107.09512
 874.29;12353.558;  367.033;11150.050;111.16115
 874.85;12464.892;  401.367;10970.050;114.14407
 875.40;12407.892;  398.367;11316.717;109.99396
 875.96;12293.558;  433.033;11993.383;102.59659
 876.52;12096.225;  428.700;12513.383;96.54804
 877.07;11787.892;  431.700;12370.383;95.12097
 877.63;11720.225;  420.367;11869.717;98.69432
 878.19;11515.558;  391.367;11249.717;102.44827
 878.74;11220.892;  380.033;11089.383;101.22798
 879.30;10834.225;  356.367;11260.717;96.08879
 879.86;11082.892;  360.033;11782.383;93.87611
 880.41;11535.225;  360.367;12469.383;92.28543
 880.97;11987.558;  345.367;12610.050;94.92452
 881.52;11929.558;  343.700;12556.050;94.87002
 882.08;11888.892;  332.367;12109.050;98.13056
 882.64;12045.225;  359.367;12182.717;98.83712
 883.19;12155.225;  348.033;12049.383;100.90453
 883.75;12430.558;  334.700;12605.717;98.57258
 884.30;12582.225;  328.700;12922.717;97.29640
 884.86;12827.225;  350.367;13210.717;97.01803
 885.42;13043.558;  375.700;12776.383;102.15452
 885.97;12771.225;  387.367;12157.717;105.21232
 886.53;12334.225;  404.700;12010.383;102.79037
 887.08;12022.558;  401.700;11993.383;100.25169
 887.64;12335.892;  409.700;12196.050;101.18647
 888.19;12925.558;  379.700;12223.050;105.93167
 888.75;12894.225;  361.700;12497.717;103.26720
 889.31;12044.892;  356.367;12556.717;95.80483
 889.86;11324.225;  363.700;12579.383;89.72503
 890.42;11358.225;  363.700;12512.717;90.49724
 890.97;11982.558;  348.033;12546.717;95.37525
 891.53;12443.558;  375.033;12298.717;101.21474
 892.08;12095.558;  396.367;11867.050;101.99211
 892.64;12076.558;  407.367;11471.050;105.47294
 893.19;11846.892;  371.367;11192.383;106.04849
 893.75;11756.225;  365.367;11232.717;104.81726
 894.30;11683.892;  345.033;11268.717;103.80069
 894.86;11820.558;  354.367;11375.050;104.04247
 895.41;12024.558;  362.033;11077.050;108.84281
 895.97;12019.225;  369.367;10754.383;112.17949
 896.52;12008.558;  381.033;10706.383;112.61144
 897.08;11803.558;  370.700;10673.050;110.97331
 897.63;11345.892;  361.367;10628.383;106.98848
 898.19;10851.892;  343.033;10226.717;106.32532
 898.74;10699.892;  314.033; 9990.050;107.33609
 899.30;10728.558;  308.367;10078.717;106.65116
 899.85;11080.892;  300.700;10362.717;107.13749
 900.41;11060.225;  360.033;10525.717;105.25797
 900.96;10698.558;  378.367;10328.717;103.71687
 901.51;10363.892;  398.367;10183.717;101.84127
 902.07;10805.558;  453.033;10590.717;102.11924
 902.62;11246.892;  453.700;10806.717;104.25166
 903.18;11014.558;  441.367;10676.383;103.30410
 903.73;10550.225;  363.700;10225.717;103.29049
 904.29;10398.892;  345.033;10212.717;101.88671
 904.84;10557.558;  355.033;10237.383;103.23987
 905.39;10563.558;  338.700;10158.717;104.12262
 905.95;10384.892;  362.033;10147.383;102.42718
 906.50;10294.892;  459.367;10552.717;97.44560
 907.06;10255.892;  454.033;10773.717;94.98216
 907.61;10746.558;  457.700;10740.050;100.06330
 908.16;10895.558;  364.700;10337.383;105.59704
 908.72;10936.225;  371.700;10028.383;109.40117
 909.27;10421.892;  370.367; 9730.383;107.38790
 909.82;10129.558;  389.700; 9568.383;106.11389
 910.38;10055.558;  389.700; 9726.050;103.52931
 910.93;10504.558;  382.367;10044.050;104.76634
 911.49;10881.558;  346.033;10146.717;107.49786
 912.04;10969.892;  341.367; 9863.717;111.61662
 912.59;10510.558;  345.033; 9516.717;110.83598
 913.15;10028.892;  363.033; 9299.717;108.15935
 913.70; 9514.558;  348.700; 9076.050;105.02453
 914.25; 9329.558;  349.367; 8912.717;104.86774
 914.81; 9299.892;  357.700; 8810.383;105.79116
 915.36; 9371.558;  398.700; 8993.717;104.39606
 915.91; 9694.225;  397.033; 9431.383;102.90936
 916.47; 9686.892;  384.367; 9898.383;97.77705
 917.02; 9796.558;  364.033;10255.383;95.36135
 917.57; 9789.558;  352.700;10258.050;95.27032
 918.12;10115.558;  361.367;10327.717;97.87125
 918.68;10436.225;  399.367;10344.383;100.92349
 919.23;10477.225;  416.367;10266.717;102.13706
 919.78;10182.558;  399.367;10062.383;101.24366
 920.34; 9676.892;  408.367; 9693.050;99.82597
 920.89; 9425.225;  388.700; 9337.050;100.98538
 921.44; 9480.225;  406.367; 8994.717;105.65310
 921.99; 9436.892;  347.367; 8962.050;105.51200
 922.55; 9348.892;  365.700; 9189.383;101.80773
 923.10; 9402.225;  353.033; 9378.717;100.26046
 923.65; 9737.558;  401.367; 9298.050;104.94014
 924.20; 9965.225;  399.367; 9003.383;111.17898
 924.76; 9928.225;  392.367; 8787.717;113.58500
 925.31; 9922.225;  345.367; 9104.050;109.34130
 925.86; 9925.558;  345.700; 9394.717;105.86629
 926.41; 9945.225;  339.367; 9650.383;103.16659
 926.97; 9773.892;  345.033; 9343.050;104.78818
 927.52; 9400.558;  350.367; 9219.383;102.04279
 928.07; 9356.225;  412.033; 9082.383;103.15837
 928.62; 9595.225;  439.700; 9245.717;103.96897
 929.17; 9645.892;  435.033; 9050.717;106.90804
 929.73; 9482.225;  393.367; 8735.050;108.95712
 930.28; 9243.558;  390.700; 8451.717;109.82310
 930.83; 9183.225;  397.700; 8556.050;107.68752
 931.38; 9033.225;  409.367; 8727.717;103.67270
 931.93; 8993.892;  378.367; 8875.717;101.39073
 932.48; 9084.892;  388.033; 8865.717;102.58532
 933.04; 9176.892;  377.367; 8842.050;103.95575
 933.59; 9119.892;  391.367; 8648.717;105.70613
 934.14; 9030.225;  348.033; 8426.717;107.47038
 934.69; 9035.892;  358.700; 8319.383;109.00059
 935.24; 8904.892;  350.367; 8389.050;106.41699
 935.79; 8878.225;  377.033; 8373.050;106.31783
 936.34; 8636.558;  384.033; 8271.050;104.63430
 936.90; 8420.225;  396.367; 8251.383;102.14948
 937.45; 8288.225;  385.700; 8392.383;98.69911
 938.00; 8523.892;  368.033; 8507.050;100.20693
 938.55; 8786.558;  374.700; 8588.383;102.41274
 939.10; 8826.558;  380.033; 8547.383;103.41818
 939.65; 8907.225;  378.367; 8603.050;103.69832
 940.20; 8754.558;  369.700; 8436.383;103.94431
 940.75; 8620.225;  433.700; 8479.050;101.75474
 941.31; 8196.225;  433.033; 8497.717;96.26158
 941.86; 7882.892;  442.367; 8403.717;93.45808
 942.41; 7784.558;  407.367; 8257.050;93.98076
 942.96; 7790.225;  386.367; 7893.050;98.63022
 943.51; 7982.558;  369.700; 7914.383;100.90362
 944.06; 8119.225;  352.033; 7972.383;101.92697
 944.61; 8041.892;  423.367; 8161.383;98.45578
 945.16; 7966.558;  421.033; 8149.383;97.63436
 945.71; 7699.558;  399.367; 8118.717;94.57003
 946.26; 7812.892;  355.700; 8013.383;97.38182
 946.81; 7975.225;  375.700; 7903.717;100.94990
 947.36; 8095.225;  376.700; 7614.050;106.64850
 947.91; 7969.558;  377.367; 7557.383;105.74059
 948.46; 7693.558;  358.367; 7390.717;104.30641
 949.01; 7632.892;  358.367; 7476.717;102.19398
 949.56; 7455.558;  341.033; 7488.383;99.54074
 950.11; 7489.558;  331.700; 7438.383;100.72010
 950.66; 7320.558;  340.700; 7292.717;100.40048
 951.21; 7228.558;  330.033; 7098.050;101.92831
 951.76; 7060.892;  386.700; 7087.050;99.60960
 952.31; 7013.558;  379.367; 6796.383;103.38436
 952.86; 7035.225;  416.700; 6839.383;103.04922
 953.41; 7027.892;  362.367; 6867.717;102.46220
 953.96; 7040.558;  361.700; 7220.383;97.37814
 954.51; 7087.892;  348.700; 7247.050;97.69281
 955.06; 6978.892;  348.367; 7028.383;99.25911
 955.61; 6821.225;  363.700; 6741.050;101.25718
 956.16; 6844.892;  351.033; 6695.050;102.36194
 956.71; 6889.892;  372.700; 6798.050;101.42936
 957.26; 6932.225;  367.700; 6774.050;102.46903
 957.81; 7009.892;  363.033; 6552.050;107.39765
 958.36; 7343.225;  368.700; 6622.383;111.52667
 958.91; 7587.558;  373.033; 6678.717;114.41306
 959.46; 7335.892;  393.700; 6665.050;110.69693
 960.01; 6917.558;  364.033; 6331.050;109.82917
 960.56; 6611.225;  346.367; 6260.050;105.93835
 961.11; 6681.225;  368.033; 6427.717;104.18352
 961.65; 6658.225;  371.367; 6514.717;102.33599
 962.20; 6617.558;  375.700; 6492.717;102.04089
 962.75; 6355.225;  328.033; 6349.717;100.09147
 963.30; 6320.558;  337.367; 6415.383;98.43987
 963.85; 6348.892;  334.033; 6385.050;99.40244
 964.40; 6487.225;  337.033; 6266.050;103.73038
 964.95; 6383.558;  354.367; 6133.717;104.32301
 965.50; 6236.558;  366.700; 6064.383;103.02184
 966.05; 6311.225;  376.033; 6130.383;103.14269
 966.59; 6564.892;  367.033; 6182.717;106.57145
 967.14; 6625.892;  353.700; 6192.383;107.42476
 967.69; 6490.225;  340.367; 6072.383;107.28961
 968.24; 6209.892;  319.367; 5933.050;104.93155
 968.79; 6281.892;  336.700; 5953.383;105.84880
 969.34; 6329.225;  340.367; 5986.050;106.07854
 969.89; 6539.892;  344.367; 6223.383;105.38370
 970.43; 6647.558;  383.700; 6331.383;105.31594
 970.98; 6571.558;  385.700; 6317.050;104.29090
 971.53; 6389.558;  401.700; 6080.050;105.45067
 972.08; 6184.558;  391.033; 5932.383;104.55079
 972.63; 6079.892;  416.367; 5835.050;104.51847
 973.17; 6107.558;  386.033; 5842.383;104.85993
 973.72; 6015.558;  349.033; 5730.050;105.30584
 974.27; 6244.558;  323.700; 5770.383;108.70576
 974.82; 6390.892;  373.700; 5876.383;109.35014
 975.37; 6517.225;  398.367; 5987.717;109.47352
 975.91; 6363.558;  399.367; 5998.050;106.52847
 976.46; 6047.558;  382.700; 5885.383;102.94720
 977.01; 5882.558;  357.367; 5918.717;99.34983
 977.56; 5955.892;  354.367; 5945.050;100.19392
 978.10; 6099.558;  353.367; 5940.050;102.85515
 978.65; 6201.558;  373.700; 5932.050;104.84871
 979.20; 6378.225;  406.700; 6063.717;105.55961
 979.75; 6629.225;  421.367; 6260.383;106.31685
 980.29; 6631.892;  408.700; 6088.050;109.57577
 980.84; 6304.225;  403.367; 5888.717;107.57487
 981.39; 5949.892;  368.367; 5598.717;106.71418
 981.94; 5707.558;  394.033; 5566.050;102.73604
 982.48; 5574.558;  370.700; 5503.050;101.39329
 983.03; 5803.225;  371.700; 5630.717;103.28024
 983.58; 6247.892;  315.700; 5820.383;107.76627
 984.12; 6786.558;  335.033; 6206.717;109.87522
 984.67; 6896.558;  335.700; 6301.050;109.98279
 985.22; 6634.892;  386.700; 6210.717;107.28320
 985.77; 6183.892;  378.367; 5910.717;104.93778
 986.31; 5888.892;  390.367; 5834.383;101.00125
 986.86; 6022.892;  364.033; 5939.717;101.49175
 987.41; 6255.225;  373.033; 6087.383;102.93720
 987.95; 6495.892;  374.700; 6282.050;103.61993
 988.50; 6525.558;  386.700; 6379.383;102.43922
 989.05; 6526.892;  391.367; 6522.717;100.06809
 989.59; 6584.558;  412.033; 6563.383;100.34423
 990.14; 6656.892;  405.700; 6530.383;102.06555
 990.69; 6667.892;  396.700; 6307.717;106.09328
 991.23; 6464.558;  385.367; 6208.383;104.39935
 991.78; 6276.558;  415.033; 6280.050;99.94047
 992.32; 6051.892;  440.700; 6131.050;98.60890
 992.87; 6017.558;  436.367; 5778.717;104.47072
 993.42; 5812.892;  384.033; 5548.050;105.12860
 993.96; 5652.558;  361.700; 5572.383;101.53867
 994.51; 5525.225;  361.033; 5604.050;98.49657
 995.05; 5716.892;  380.367; 5541.717;103.39398
 995.60; 5889.892;  375.367; 5545.383;106.66358
 996.15; 5797.558;  371.367; 5610.050;103.57930
 996.69; 5504.225;  370.367; 5482.717;100.42071
 997.24; 5301.892;  370.700; 5442.050;97.23627
 997.78; 5211.558;  395.033; 5442.383;95.42681
 998.33; 5397.225;  398.367; 5443.050;99.09162
 998.88; 5564.892;  376.367; 5371.383;103.87403
 999.42; 5674.225;  354.367; 5271.717;108.18547
 999.97; 5491.225;  369.367; 5186.717;106.32108
1000.51; 5371.558;  409.700; 5186.717;103.86940
1001.06; 5380.558;  408.700; 5228.383;103.15737
1001.60; 5554.225;  413.033; 5409.050;102.90581
1002.15; 5698.892;  412.033; 5517.383;103.55526
1002.69; 5542.558;  405.033; 5519.383;100.45314
1003.24; 5403.558;  402.367; 5706.050;94.29657
1003.78; 5276.558;  389.700; 5795.383;90.40223
1004.33; 5348.225;  383.700; 5818.383;91.34893
1004.87; 5071.892;  364.700; 5430.050;92.92925
1005.42; 4653.892;  370.033; 5065.717;91.22971
1005.96; 4391.558;  394.700; 4834.383;90.02575
1006.51; 4545.225;  413.700; 4825.717;93.64255
1007.05; 4754.225;  410.700; 4895.383;96.85243
1007.60; 4848.225;  408.700; 5158.050;93.47648
1008.14; 5043.892;  428.033; 5411.050;92.63181
1008.69; 5082.225;  463.033; 5300.717;95.48355
1009.23; 5028.892;  441.033; 4836.383;104.37982
1009.78; 4639.558;  425.367; 4375.383;106.68795
1010.32; 4330.558;  391.700; 4132.717;105.28845
1010.87; 4074.558;  402.700; 4145.050;98.11638
1011.41; 3966.225;  403.033; 4244.383;92.75884
1011.96; 4015.558;  385.367; 4424.717;89.87069
1012.50; 4180.892;  389.700; 4654.383;88.89738
1013.05; 4225.225;  375.367; 4628.383;90.52065
1013.59; 4369.225;  388.033; 4760.050;91.06076
1014.13; 4496.225;  412.700; 4725.717;94.67909
1014.68; 4464.892;  430.033; 4748.050;93.44240
1015.22; 4035.558;  413.033; 4518.050;88.24629
1015.77; 3537.892;  392.033; 4101.717;84.80126
1016.31; 3394.558;  398.367; 3920.050;85.07840
1016.85; 3673.892;  406.033; 4102.383;88.40771
1017.40; 4166.225;  381.367; 4636.050;88.95746
1017.94; 4786.225;  344.033; 5036.383;94.66880
1018.49; 5215.558;  337.367; 5182.717;100.67780
1019.03; 5291.892;  353.700; 5190.717;102.09168
1019.57; 4786.892;  344.367; 4890.050;97.73063
1020.12; 4234.892;  369.367; 4504.383;93.48269
1020.66; 3907.558;  374.700; 4115.717;94.43578
1021.20; 3878.892;  422.700; 4056.050;95.12410
1021.75; 3797.892;  406.367; 3920.050;96.52335
1022.29; 3639.225;  382.367; 3825.717;94.58400
1022.83; 3587.225;  360.033; 3779.050;94.38947
1023.38; 3672.892;  350.033; 3879.383;94.14930
1023.92; 3725.892;  373.367; 3970.383;93.20293
1024.46; 3632.558;  363.367; 3929.717;91.66772
1025.01; 3464.558;  369.367; 3677.717;93.55696
1025.55; 3343.225;  357.033; 3468.383;95.97736
1026.09; 3296.225;  349.367; 3393.050;96.81882
1026.64; 3216.558;  378.367; 3514.050;90.51270
1027.18; 3112.558;  408.033; 3501.050;87.43972
1027.72; 2943.225;  416.367; 3393.050;84.88838
1028.27; 3028.558;  366.033; 3359.050;88.95791
1028.81; 3159.892;  447.367; 3471.383;89.69941
1029.35; 3285.225;  468.367; 3480.717;93.51033
1029.89; 3264.558;  490.700; 3500.717;92.15425
1030.44; 3242.558;  388.367; 3421.383;94.10405
1030.98; 3211.225;  370.700; 3358.383;95.07450
1031.52; 3049.558;  396.033; 3147.383;96.44447
1032.07; 2770.892;  403.033; 2868.050;96.05851
1032.61; 2547.225;  418.700; 2671.383;94.48842
1033.15; 2445.558;  406.700; 2616.383;92.26925
1033.69; 2594.558;  402.033; 2764.717;92.79809
1034.23; 2829.892;  403.367; 3010.383;93.07670
1034.78; 3058.558;  403.700; 3182.050;95.55522
1035.32; 3051.225;  391.367; 3183.050;95.27794
1035.86; 3067.558;  472.033; 3099.717;98.77617
1036.40; 2823.558;  501.700; 2880.383;97.61107
1036.95; 2631.225;  519.033; 2624.717;100.30908
1037.49; 2273.558;  406.700; 2367.050;95.23087
1038.03; 2363.892;  453.700; 2396.383;98.32749
1038.57; 2522.225;  465.367; 2530.717;99.58885
1039.11; 2723.558;  474.700; 2698.383;101.13213
1039.66; 2721.225;  407.367; 2777.717;97.61674
1040.20; 2700.225;  419.367; 2840.050;94.22374
1040.74; 2659.558;  423.033; 2690.050;98.65499
1041.28; 2504.892;  401.700; 2404.717;105.00121
1041.82; 2284.225;  376.367; 2112.050;109.91972
1042.36; 2072.225;  370.700; 1971.050;106.32205
1042.91; 2019.558;  388.700; 1960.717;103.74307
1043.45; 2105.225;  385.700; 2155.717;97.14739
1043.99; 2284.558;  394.367; 2417.050;93.44971
1044.53; 2494.225;  389.700; 2632.050;93.85355
1045.07; 2632.225;  380.367; 2606.050;101.17604
1045.61; 2702.558;  462.033; 2566.383;106.47112
1046.15; 2564.892;  468.367; 2342.050;111.89324
1046.69; 2294.558;  464.700; 2093.383;112.35200
1047.24; 2016.892;  372.367; 1780.050;116.82493
1047.78; 1863.225;  357.033; 1719.050;110.58541
1048.32; 1825.225;  364.367; 1784.717;102.85200
1048.86; 1880.892;  382.700; 1958.050;95.10215
1049.40; 1968.892;  376.367; 2057.717;94.71704
1049.94; 2184.558;  374.367; 2161.050;101.31575
1050.48; 2349.225;  358.033; 2210.383;107.49543
1051.02; 2382.225;  354.367; 2197.717;110.00940
1051.56; 2278.225;  366.700; 2093.050;110.72639
1052.10; 2119.558;  385.700; 1964.383;109.82939
1052.64; 2078.892;  382.033; 1861.383;114.70297
1053.18; 2068.558;  381.367; 1852.717;114.66963
1053.72; 2042.892;  370.700; 1841.050;113.72746
1054.26; 1978.225;  410.033; 1862.717;107.95138
1054.81; 1897.558;  420.033; 1840.383;104.02542
1055.35; 1881.225;  420.367; 1846.717;102.41935
1055.89; 1951.225;  394.700; 1905.717;103.01177
1056.43; 2078.892;  442.700; 2026.383;103.31558
1056.97; 2056.558;  451.700; 2040.050;101.03934
1057.51; 1983.558;  442.700; 1995.050;99.25972
1058.05; 1892.892;  359.700; 1880.383;100.82255
1058.59; 2003.892;  353.367; 1936.383;104.26454
1059.13; 2091.225;  380.033; 1974.717;107.30605
1059.67; 2078.558;  404.367; 1990.717;105.53734
1060.21; 2036.892;  418.033; 1939.050;106.43265
1060.75; 2000.225;  385.367; 1932.383;104.38532
1061.29; 2085.892;  386.367; 1961.717;107.88238
1061.82; 2084.892;  391.700; 1914.717;111.17355
1062.36; 1985.892;  392.367; 1813.383;112.13978
1062.90; 1792.892;  374.367; 1634.383;112.57986
1063.44; 1618.558;  352.033; 1543.717;106.28033
1063.98; 1569.892;  368.033; 1539.050;102.63375
1064.52; 1546.225;  360.700; 1597.383;95.86326
1065.06; 1621.892;  349.700; 1680.050;95.62834
1065.60; 1780.892;  367.367; 1773.717;100.51019
1066.14; 2014.225;  366.367; 1885.717;108.45811
1066.68; 2187.225;  371.700; 2016.050;110.40989
1067.22; 2278.558;  348.033; 2070.717;112.06500
1067.76; 2283.892;  377.033; 2118.050;109.52556
1068.30; 2261.558;  385.700; 2054.383;112.41548
1068.84; 2194.892;  389.700; 1919.717;117.98510
1069.37; 2053.225;  379.033; 1737.717;123.22162
1069.91; 1860.225;  370.700; 1558.383;125.41432
1070.45; 1662.225;  382.700; 1452.050;119.65446
1070.99; 1682.558;  581.033; 1548.050;113.90962
1071.53; 1645.892;  625.033; 1588.050;106.00630
1072.07; 1684.558;  616.367; 1728.383;96.05896
1072.61; 1669.892;  426.367; 1758.717;93.33321
1073.15; 1856.892;  405.033; 1970.717;92.73001
1073.68; 1998.225;  414.700; 2108.050;93.51434
1074.22; 2131.225;  422.700; 2209.383;95.62551
1074.76; 2121.225;  406.367; 2103.050;101.07121
1075.30; 1975.225;  398.700; 1876.050;106.71303
1075.84; 1726.225;  408.700; 1618.050;108.94489
1076.38; 1566.892;  452.700; 1502.717;106.11181
1076.91; 1548.225;  450.033; 1494.717;105.12197
1077.45; 1607.892;  439.033; 1579.717;102.47001
1077.99; 1656.225;  402.033; 1621.383;102.85740
1078.53; 1644.892;  415.033; 1626.383;101.52791
1079.07; 1589.225;  397.033; 1518.050;106.34915
1079.60; 1485.225;  381.033; 1452.050;103.09752
1080.14; 1481.225;  364.367; 1472.050;100.82831
1080.68; 1585.892;  364.033; 1642.717;95.55598
1081.22; 1849.558;  393.700; 1986.717;91.39003
1081.76; 2142.225;  431.367; 2250.383;94.05402
1082.29; 2318.892;  443.367; 2364.717;97.61496
1082.83; 2362.892;  438.367; 2190.717;109.82538
1083.37; 2223.892;  421.367; 1983.383;115.39730
1083.91; 1973.892;  424.700; 1694.717;121.98199
1084.44; 1608.892;  406.367; 1419.050;118.74640
1084.98; 1284.558;  415.700; 1173.717;114.62259
1085.52; 1049.892;  420.033; 1038.717;101.80626
1086.05;  964.225;  419.367; 1058.383;85.26512
1086.59; 1015.225;  389.033; 1228.050;74.63400
1087.13; 1206.558;  384.367; 1505.717;73.32159
1087.67; 1458.558;  394.367; 1785.050;76.52293
1088.20; 1701.225;  399.367; 2001.383;81.26372
1088.74; 1945.892;  415.033; 2126.383;89.45326
1089.28; 2135.225;  408.700; 2245.383;94.00232
1089.81; 2286.225;  421.033; 2357.717;96.30855
1090.35; 2348.225;  413.367; 2450.717;94.96936
1090.89; 2304.225;  418.367; 2351.383;97.56038
1091.42; 2155.225;  431.367; 2113.717;102.46728
1091.96; 1934.558;  418.367; 1780.717;111.29237
1092.50; 1684.892;  411.367; 1532.383;113.60447
1093.03; 1460.558;  413.700; 1297.050;118.51003
1093.57; 1238.558;  422.700; 1124.050;116.32685
1094.11; 1079.892;  429.033;  959.717;122.64533
1094.64;  961.558;  448.367;  891.050;115.92749
1095.18;  887.892;  457.033;  891.383;99.19612
1095.72;  874.558;  469.700;  951.050;84.10893
1096.25;  898.225;  426.367; 1046.717;76.06324
1096.79;  960.225;  406.700; 1087.383;81.31902
1097.33; 1075.558;  398.367; 1175.050;87.19019
1097.86; 1202.225;  406.033; 1259.050;93.33835
1098.40; 1330.225;  409.033; 1395.383;93.39399
1098.93; 1424.225;  388.033; 1502.050;93.01402
1099.47; 1513.892;  372.033; 1558.383;96.24970
1100.01; 1587.558;  361.367; 1581.717;100.47869

