on Al P1600nm grating
Integration time [ms]: 500.000
Averaging Nr. [scans]: 1
Smoothing Nr. [pixels]: 1
Data measured with spectrometer [name]: 7413129SP
Wave   ;Sample   ;Dark     ;Reference;Reflectance
[nm]   ;[counts] ;[counts] ;[counts] ;[%]

 175.41;  592.117;  615.700;  578.257; 0.00000
 176.01;  625.647;  639.367;  605.501; 0.00000
 176.61;  664.283;  658.700;  651.073; 0.00000
 177.21;  671.481;  674.366;  668.685; 0.00000
 177.81;  698.440;  678.367;  702.559;82.97546
 178.41;  634.633;  623.033;  647.489;47.43341
 179.01;  551.865;  545.698;  577.570;19.34861
 179.61;  518.685;  516.031;  536.711;12.83354
 180.21;  588.652;  577.032;  594.243;67.51238
 180.81;  666.163;  653.033;  665.733;103.38752
 181.42;  672.738;  658.033;  671.781;106.95692
 182.02;  612.543;  609.366;  603.542; 0.00000
 182.62;  583.671;  582.700;  588.909;15.63692
 183.22;  599.647;  622.701;  625.805;-742.64996
 183.82;  609.712;  648.701;  648.309; 0.00000
 184.42;  592.536;  636.374;  616.156; 0.00000
 185.02;  637.936;  622.054;  608.754; 0.00000
 185.62;  629.857;  601.395;  611.509;281.40925
 186.22;  622.933;  574.061;  595.408;228.93997
 186.82;  554.233;  542.394;  559.337;69.87631
 187.42;  557.869;  545.061;  575.242;42.43845
 188.02;  549.205;  540.062;  615.855;12.06300
 188.62;  529.353;  537.064;  610.524;-10.49738
 189.22;  543.588;  560.732;  608.159;-36.15009
 189.82;  549.275;  581.400;  599.192;-180.54666
 190.43;  603.476;  604.734;  633.388;-4.39290
 191.03;  638.306;  612.737;  675.105;40.99701
 191.63;  674.760;  640.738;  707.719;50.79245
 192.23;  639.010;  623.075;  683.342;26.44172
 192.83;  584.087;  572.078;  603.397;38.34415
 193.43;  565.970;  549.747;  583.611;47.90722
 194.03;  571.262;  549.750;  606.027;38.22531
 194.63;  623.508;  607.757;  664.089;27.96083
 195.23;  614.630;  608.766;  661.069;11.21163
 195.83;  620.193;  635.434;  670.658;-43.27094
 196.43;  602.268;  617.767;  668.253;-30.69986
 197.03;  616.149;  609.770;  658.432;13.11003
 197.63;  614.188;  592.104;  634.155;52.51510
 198.23;  659.455;  637.768;  658.103;106.64801
 198.83;  650.119;  639.105;  647.581;129.94421
 199.43;  676.908;  669.448;  676.502;105.75784
 200.03;  610.817;  594.113;  632.644;43.35166
 200.63;  670.651;  648.096;  717.255;32.61228
 201.23;  677.891;  647.079;  721.123;41.61296
 201.83;  717.085;  685.737;  771.424;36.58485
 202.43;  642.158;  627.402;  696.073;21.48840
 203.03;  620.640;  580.401;  673.562;43.19289
 203.63;  598.237;  573.398;  637.135;38.97033
 204.23;  593.409;  569.063;  637.061;35.80330
 204.83;  580.192;  580.398;  616.028;-0.57693
 205.43;  573.011;  556.064;  594.498;44.09365
 206.03;  608.446;  594.395;  626.570;43.66972
 206.63;  608.032;  585.394;  630.714;49.95035
 207.23;  601.432;  594.395;  648.557;12.99275
 207.83;  590.829;  568.729;  627.390;37.67431
 208.43;  616.953;  622.061;  667.805;-11.16636
 209.03;  657.098;  644.727;  697.920;23.25676
 209.63;  652.808;  631.062;  673.993;50.65403
 210.22;  670.384;  621.395;  678.076;86.42950
 210.82;  640.541;  603.727;  647.288;84.51157
 211.42;  646.743;  614.394;  662.518;67.21935
 212.02;  597.947;  578.396;  615.724;52.37575
 212.62;  587.336;  571.062;  628.595;28.28745
 213.22;  560.466;  552.727;  596.359;17.73586
 213.82;  602.642;  581.395;  623.510;50.45022
 214.42;  601.444;  582.729;  605.535;82.06337
 215.02;  598.901;  583.396;  620.582;41.69570
 215.62;  586.786;  595.061;  629.954;-23.71740
 216.22;  623.753;  648.393;  681.579;-74.25049
 216.82;  604.604;  619.393;  658.483;-37.83395
 217.42;  620.997;  622.060;  661.334;-2.70574
 218.02;  634.371;  598.393;  656.794;61.60521
 218.62;  684.036;  644.393;  715.789;55.52580
 219.21;  633.985;  597.060;  666.964;52.82261
 219.81;  565.343;  558.060;  614.342;12.93902
 220.41;  539.021;  518.727;  573.712;36.90860
 221.01;  565.792;  562.060;  623.701; 6.05439
 221.61;  590.488;  571.060;  646.457;25.76716
 222.21;  568.074;  588.060;  630.542;-47.04557
 222.81;  539.119;  543.394;  565.317;-19.50136
 223.41;  514.153;  527.727;  545.089;-78.18531
 224.01;  577.149;  590.060;  607.108;-75.73131
 224.61;  605.012;  617.060;  646.382;-41.08568
 225.20;  604.671;  615.394;  625.659;-104.45354
 225.80;  603.931;  599.061;  646.069;10.35957
 226.40;  588.794;  602.727;  661.010;-23.90657
 227.00;  591.879;  612.726;  668.637;-37.28731
 227.60;  524.214;  542.725;  587.368;-41.46630
 228.20;  582.523;  581.058;  626.657; 3.21230
 228.80;  582.530;  573.393;  608.285;26.18742
 229.40;  619.582;  632.060;  627.718; 0.00000
 229.99;  525.578;  553.060;  553.374; 0.00000
 230.59;  528.619;  548.059;  569.893;-89.03488
 231.19;  548.010;  570.392;  620.102;-45.02357
 231.79;  620.797;  637.393;  680.717;-38.30785
 232.39;  625.673;  632.728;  685.605;-13.34264
 232.99;  625.314;  606.062;  686.526;23.92661
 233.59;  572.685;  519.395;  607.642;60.38710
 234.18;  574.605;  558.062;  627.061;23.97565
 234.78;  594.569;  593.394;  639.646; 2.53849
 235.38;  599.867;  618.393;  669.266;-36.41612
 235.98;  636.831;  607.726;  680.852;39.80130
 236.58;  614.206;  585.060;  656.282;40.92214
 237.18;  614.844;  588.395;  642.437;48.94140
 237.77;  603.134;  618.063;  670.574;-28.43163
 238.37;  594.731;  598.062;  668.422;-4.73385
 238.97;  564.122;  585.395;  650.964;-32.44205
 239.57;  502.286;  512.063;  565.377;-18.33910
 240.17;  494.814;  488.398;  538.890;12.70802
 240.76;  540.557;  516.732;  574.427;41.29463
 241.36;  579.240;  526.732;  587.146;86.91420
 241.96;  590.387;  550.399;  604.571;73.81843
 242.56;  692.171;  645.734;  697.174;90.27414
 243.16;  690.122;  665.069;  730.962;38.02155
 243.76;  688.887;  672.402;  720.233;34.46344
 244.35;  590.625;  582.736;  637.092;14.51367
 244.95;  603.815;  588.069;  632.678;35.29698
 245.55;  573.519;  555.735;  606.157;35.26953
 246.15;  568.230;  538.735;  582.961;66.69078
 246.74;  571.788;  536.401;  576.354;88.57156
 247.34;  596.877;  547.734;  594.296;105.54421
 247.94;  567.874;  537.734;  581.922;68.20802
 248.54;  514.725;  501.401;  544.492;30.92113
 249.14;  523.913;  509.401;  564.377;26.39757
 249.73;  571.111;  568.733;  608.686; 5.95175
 250.33;  601.963;  605.731;  640.683;-10.77996
 250.93;  637.704;  648.729;  671.308;-48.83027
 251.53;  624.300;  600.728;  655.484;43.04960
 252.12;  624.493;  599.395;  666.747;37.26475
 252.72;  555.290;  544.394;  601.149;19.19775
 253.32;  569.457;  581.393;  610.695;-40.73557
 253.92;  542.382;  536.393;  572.797;16.45000
 254.51;  560.808;  547.728;  589.356;31.42119
 255.11;  533.212;  514.395;  554.543;46.86815
 255.71;  544.692;  540.728;  574.663;11.67991
 256.31;  543.794;  532.727;  570.010;29.68324
 256.90;  538.491;  499.060;  563.134;61.53955
 257.50;  584.068;  536.727;  596.158;79.65565
 258.10;  598.942;  557.396;  621.375;64.93649
 258.69;  594.477;  575.729;  626.635;36.82788
 259.29;  572.854;  553.062;  593.469;48.98284
 259.89;  561.520;  542.061;  571.528;66.03864
 260.49;  538.088;  527.727;  562.251;30.01051
 261.08;  538.322;  532.728;  572.915;13.92137
 261.68;  543.512;  532.729;  580.442;22.60123
 262.28;  576.128;  560.063;  605.254;35.54968
 262.87;  579.209;  552.063;  606.473;49.89093
 263.47;  534.257;  519.396;  566.954;31.24657
 264.07;  535.162;  521.062;  562.723;33.84491
 264.67;  516.027;  512.395;  535.669;15.60541
 265.26;  544.663;  533.396;  564.211;36.56464
 265.86;  575.242;  533.395;  578.638;92.49502
 266.46;  585.052;  547.728;  613.415;56.82192
 267.05;  584.721;  560.063;  608.361;51.05519
 267.65;  547.777;  523.064;  598.137;32.91806
 268.25;  539.322;  495.398;  566.429;61.83805
 268.84;  507.430;  455.398;  531.732;68.16340
 269.44;  492.613;  468.066;  514.571;52.78423
 270.04;  484.839;  488.399;  533.572;-7.88120
 270.63;  550.288;  551.066;  593.264;-1.84159
 271.23;  573.731;  578.399;  607.573;-16.00083
 271.83;  585.797;  564.401;  607.381;49.78171
 272.42;  541.781;  520.067;  591.333;30.46928
 273.02;  511.776;  493.733;  590.014;18.73986
 273.62;  487.923;  473.733;  556.134;17.22056
 274.21;  478.733;  462.066;  538.245;21.87895
 274.81;  480.645;  450.400;  522.607;41.88569
 275.41;  484.354;  464.734;  536.376;27.38630
 276.00;  501.672;  473.734;  544.995;39.20511
 276.60;  512.522;  495.735;  558.168;26.88828
 277.20;  525.948;  500.735;  558.453;43.68275
 277.79;  518.580;  509.400;  566.740;16.00878
 278.39;  520.671;  522.401;  562.961;-4.26705
 278.98;  531.938;  547.403;  577.029;-52.20023
 279.58;  536.237;  555.735;  569.649;-140.13376
 280.18;  536.865;  545.067;  548.925;-212.57873
 280.77;  538.944;  550.067;  577.168;-41.04294
 281.37;  522.915;  519.400;  558.745; 8.93231
 281.96;  554.062;  540.401;  596.503;24.35053
 282.56;  584.747;  566.734;  611.228;40.48516
 283.16;  618.289;  586.067;  619.872;95.31779
 283.75;  569.190;  551.400;  584.899;53.10546
 284.35;  525.987;  515.401;  551.908;28.99650
 284.94;  543.140;  563.736;  607.318;-47.25779
 285.54;  568.604;  592.069;  627.058;-67.06137
 286.14;  662.763;  670.401;  716.942;-16.41102
 286.73;  677.483;  661.733;  710.503;32.29581
 287.33;  698.935;  672.399;  725.201;50.25505
 287.92;  641.518;  607.732;  642.942;95.95384
 288.52;  635.853;  640.066;  656.918;-25.00370
 289.12;  576.464;  602.735;  623.685;-125.39679
 289.71;  534.380;  594.402;  599.396;-1201.80091
 290.31;  537.696;  568.401;  590.736;-137.47172
 290.90;  582.378;  583.399;  598.509;-6.76272
 291.50;  552.022;  549.067;  578.078;10.18767
 292.09;  534.687;  532.400;  566.406; 6.72583
 292.69;  512.124;  522.733;  572.091;-21.49202
 293.28;  542.465;  536.400;  607.749; 8.50055
 293.88;  482.799;  478.401;  554.386; 5.78799
 294.48;  508.409;  503.401;  575.212; 6.97416
 295.07;  523.290;  541.068;  576.813;-49.73795
 295.67;  534.737;  572.401;  605.166;-114.95120
 296.26;  489.056;  537.066;  569.880;-146.31106
 296.86;  429.801;  470.065;  501.485;-128.14748
 297.45;  453.106;  464.400;  489.336;-45.29069
 298.05;  486.802;  492.734;  516.367;-25.10196
 298.64;  555.305;  530.401;  573.556;57.70707
 299.24;  551.580;  528.734;  579.740;44.79067
 299.83;  559.316;  523.067;  580.956;62.61848
 300.43;  541.956;  522.734;  563.872;46.72567
 301.02;  575.310;  550.400;  566.602;153.74536
 301.62;  559.857;  552.734;  559.899;99.40944
 302.21;  544.965;  526.068;  541.202;124.86052
 302.81;  532.978;  548.401;  549.215; 0.00000
 303.40;  543.543;  540.735;  547.898;39.19720
 304.00;  555.758;  557.735;  579.230;-9.19617
 304.59;  522.724;  509.735;  576.791;19.37037
 305.19;  584.363;  583.067;  638.069; 2.35511
 305.78;  603.343;  572.399;  628.737;54.92593
 306.38;  692.234;  655.732;  700.095;82.27902
 306.97;  622.959;  578.400;  636.882;76.19225
 307.57;  619.252;  599.069;  641.667;47.38101
 308.16;  532.733;  526.403;  554.395;22.61302
 308.76;  579.540;  581.070;  613.162;-4.76708
 309.35;  619.829;  594.736;  657.024;40.28448
 309.95;  604.460;  568.070;  646.550;46.36769
 310.54;  570.730;  530.403;  585.385;73.34554
 311.14;  603.517;  603.401;  624.848; 0.53935
 311.73;  644.720;  638.067;  660.173;30.09584
 312.33;  664.132;  654.734;  695.023;23.32583
 312.92;  574.228;  562.734;  621.319;19.61866
 313.52;  555.082;  552.067;  617.263; 4.62520
 314.11;  522.705;  534.067;  589.429;-20.52459
 314.70;  554.934;  572.068;  611.774;-43.15162
 315.30;  588.773;  589.067;  628.336;-0.74850
 315.89;  557.449;  547.066;  581.064;30.54069
 316.49;  559.285;  527.066;  559.891;98.15526
 317.08;  527.108;  514.733;  509.342; 0.00000
 317.68;  557.150;  539.066;  548.140;199.29550
 318.27;  538.386;  523.400;  539.173;95.01409
 318.86;  527.282;  501.067;  547.517;56.43707
 319.46;  544.291;  495.067;  551.877;86.64609
 320.05;  535.766;  492.400;  550.649;74.44948
 320.65;  540.729;  498.401;  543.807;93.22130
 321.24;  539.600;  525.070;  566.650;34.94402
 321.83;  570.721;  567.737;  588.995;14.03772
 322.43;  577.620;  573.403;  604.076;13.74885
 323.02;  556.035;  550.068;  586.722;16.27860
 323.62;  573.398;  544.400;  623.876;36.48671
 324.21;  624.465;  592.399;  685.112;34.58581
 324.80;  603.937;  568.400;  652.177;42.41855
 325.40;  549.643;  537.400;  591.269;22.72703
 325.99;  477.122;  471.067;  500.688;20.43999
 326.59;  497.648;  493.733;  522.618;13.55230
 327.18;  519.304;  483.066;  542.949;60.51479
 327.77;  551.472;  490.400;  576.437;70.98337
 328.37;  549.150;  486.733;  567.140;77.62637
 328.96;  535.142;  501.399;  554.477;63.57163
 329.55;  540.355;  531.399;  590.470;15.16178
 330.15;  557.347;  532.066;  593.081;41.43369
 330.74;  551.821;  511.067;  593.121;49.66667
 331.34;  500.701;  472.067;  537.781;43.57353
 331.93;  478.051;  464.066;  529.530;21.36277
 332.52;  441.728;  445.066;  473.229;-11.85275
 333.12;  487.848;  481.399;  502.598;30.41807
 333.71;  492.198;  485.065;  507.681;31.53812
 334.30;  501.618;  469.731;  522.313;60.64220
 334.90;  462.946;  416.398;  470.297;86.36155
 335.49;  454.490;  408.065;  454.887;99.15137
 336.08;  452.005;  446.065;  482.417;16.33796
 336.68;  494.770;  503.065;  528.724;-32.32829
 337.27;  489.758;  521.399;  520.687; 0.00000
 337.86;  577.711;  587.399;  587.206; 0.00000
 338.46;  585.437;  580.066;  614.694;15.51162
 339.05;  616.615;  586.399;  641.243;55.09423
 339.64;  550.548;  527.731;  568.763;55.60705
 340.24;  497.756;  480.731;  495.711;113.65475
 340.83;  486.979;  459.065;  508.701;56.23685
 341.42;  525.310;  472.731;  557.725;61.86185
 342.01;  589.939;  526.064;  622.972;65.91292
 342.61;  613.015;  564.729;  650.906;56.03146
 343.20;  554.578;  530.396;  584.251;44.90189
 343.79;  530.038;  542.729;  584.641;-30.28216
 344.39;  515.676;  531.060;  564.008;-46.69269
 344.98;  563.382;  578.393;  609.130;-48.84019
 345.57;  548.015;  542.395;  578.965;15.36770
 346.16;  567.131;  550.394;  597.354;35.64062
 346.76;  550.360;  522.727;  578.061;49.93773
 347.35;  530.961;  516.394;  570.194;27.07736
 347.94;  460.779;  458.061;  505.962; 5.67396
 348.54;  457.750;  466.728;  514.843;-18.65992
 349.13;  472.483;  473.395;  512.382;-2.33783
 349.72;  518.303;  519.727;  533.220;-10.55151
 350.31;  506.151;  492.393;  523.780;43.83273
 350.91;  533.491;  520.394;  557.438;35.35623
 351.50;  532.100;  505.394;  561.592;47.52118
 352.09;  510.443;  486.060;  543.320;42.58345
 352.68;  462.571;  440.060;  492.716;42.75207
 353.28;  435.038;  425.060;  465.098;24.92141
 353.87;  441.110;  443.061;  460.957;-10.89865
 354.46;  457.768;  444.727;  486.597;31.14642
 355.05;  463.434;  445.726;  512.323;26.59035
 355.65;  493.015;  468.059;  563.755;26.07884
 356.24;  530.352;  515.393;  595.070;18.77533
 356.83;  561.426;  538.393;  613.630;30.61402
 357.42;  542.549;  549.393;  613.344;-10.70136
 358.01;  565.912;  551.724;  618.164;21.35451
 358.61;  539.139;  540.723;  598.563;-2.73883
 359.20;  540.343;  536.391;  594.799; 6.76644
 359.79;  494.748;  504.058;  572.324;-13.63740
 360.38;  503.521;  527.725;  592.318;-37.47061
 360.97;  533.856;  534.057;  582.686;-0.41442
 361.57;  495.888;  495.723;  537.816; 0.39124
 362.16;  468.539;  448.057;  495.435;43.23159
 362.75;  425.138;  410.723;  458.891;29.92509
 363.34;  453.984;  444.057;  486.416;23.43515
 363.93;  474.759;  450.725;  496.993;51.94472
 364.53;  521.623;  492.728;  553.149;47.82376
 365.12;  516.912;  494.062;  546.648;43.45340
 365.71;  509.933;  505.395;  566.378; 7.44116
 366.30;  519.887;  540.728;  594.236;-38.95104
 366.89;  549.920;  578.062;  635.973;-48.59686
 367.48;  585.355;  607.062;  658.957;-41.82879
 368.08;  566.555;  566.394;  626.300; 0.26838
 368.67;  629.154;  614.060;  702.457;17.07564
 369.26;  639.710;  626.393;  710.477;15.83756
 369.85;  643.437;  626.391;  710.422;20.28551
 370.44;  552.589;  522.390;  603.559;37.20477
 371.03;  571.625;  526.058;  614.611;51.45781
 371.62;  579.031;  531.392;  626.803;49.93005
 372.22;  611.857;  587.393;  678.235;26.93005
 372.81;  552.823;  568.061;  641.433;-20.76749
 373.40;  510.488;  527.393;  596.791;-24.36062
 373.99;  464.019;  490.726;  547.433;-47.09599
 374.58;  498.101;  492.059;  558.990; 9.02687
 375.17;  526.394;  520.061;  581.108;10.37391
 375.76;  602.654;  569.728;  628.910;55.63514
 376.35;  573.268;  556.725;  629.537;22.72043
 376.95;  559.613;  545.058;  624.574;18.30478
 377.54;  528.905;  543.060;  629.716;-16.33477
 378.13;  535.997;  544.394;  624.971;-10.42019
 378.72;  536.216;  549.060;  619.981;-18.11034
 379.31;  500.270;  495.725;  561.209; 6.94041
 379.90;  517.591;  498.390;  573.898;25.42841
 380.49;  509.828;  493.391;  583.269;18.28899
 381.08;  518.569;  497.391;  596.466;21.37539
 381.67;  517.827;  503.725;  627.567;11.38733
 382.26;  562.078;  547.725;  681.314;10.74457
 382.86;  621.923;  616.391;  764.529; 3.73402
 383.45;  610.290;  604.725;  763.605; 3.50287
 384.04;  592.744;  572.727;  759.220;10.73360
 384.63;  559.700;  538.060;  738.749;10.78265
 385.22;  579.062;  532.726;  733.535;23.07453
 385.81;  545.501;  504.393;  689.862;22.16451
 386.40;  525.357;  466.392;  660.448;30.38557
 386.99;  476.108;  440.393;  633.678;18.47803
 387.58;  489.632;  453.061;  683.842;15.84654
 388.17;  481.377;  455.061;  706.055;10.48464
 388.76;  522.570;  490.061;  789.318;10.86328
 389.35;  495.032;  489.728;  790.714; 1.76226
 389.94;  544.158;  529.394;  853.438; 4.55621
 390.53;  577.149;  539.729;  859.984;11.68425
 391.12;  585.005;  502.733;  843.358;24.15319
 391.71;  589.208;  498.403;  852.167;25.66831
 392.30;  544.783;  480.404;  888.519;15.77474
 392.89;  588.388;  524.407;  999.176;13.47617
 393.48;  550.139;  485.414; 1049.133;11.48190
 394.07;  612.441;  533.420; 1151.732;12.78015
 394.66;  645.578;  586.428; 1207.426; 9.52498
 395.25;  647.962;  584.771; 1243.792; 9.58857
 395.84;  571.098;  517.449; 1222.029; 7.61439
 396.43;  505.800;  430.795; 1242.194; 9.24386
 397.02;  516.479;  436.142; 1320.928; 9.07984
 397.61;  546.260;  458.157; 1445.247; 8.92555
 398.20;  564.900;  498.507; 1533.069; 6.41751
 398.79;  648.311;  601.520; 1673.336; 4.36555
 399.38;  637.818;  578.197; 1642.386; 5.60247
 399.97;  645.962;  574.873; 1652.738; 6.59538
 400.56;  574.402;  465.878; 1565.794; 9.86656
 401.15;  595.163;  476.546; 1621.388;10.36103
 401.74;  623.830;  485.542; 1652.238;11.85297
 402.33;  656.074;  520.533; 1687.691;11.61288
 402.92;  649.579;  538.186; 1639.195;10.11736
 403.51;  628.299;  531.504; 1536.060; 9.63557
 404.10;  594.015;  523.492; 1432.427; 7.75882
 404.69;  599.917;  528.150; 1456.218; 7.73295
 405.28;  587.146;  500.478; 1608.804; 7.81965
 405.87;  584.859;  480.810; 1820.707; 7.76549
 406.46;  607.842;  481.476; 2061.684; 7.99680
 407.05;  636.725;  499.477; 2251.261; 7.83472
 407.64;  637.992;  516.480; 2458.270; 6.25776
 408.23;  647.489;  510.482; 2717.349; 6.20822
 408.82;  704.075;  548.481; 3007.797; 6.32671
 409.41;  717.387;  518.145; 3269.186; 7.24241
 410.00;  723.766;  505.810; 3478.054; 7.33302
 410.59;  706.959;  468.477; 3684.621; 7.41514
 411.18;  752.697;  485.477; 3931.176; 7.75518
 411.76;  764.181;  465.812; 4160.915; 8.07474
 412.35;  793.551;  484.478; 4423.026; 7.84737
 412.94;  829.546;  497.476; 4701.437; 7.89898
 413.53;  855.057;  532.809; 5061.349; 7.11594
 414.12;  843.329;  506.806; 5402.616; 6.87370
 414.71;  853.409;  504.470; 5665.316; 6.76127
 415.30;  826.067;  449.137; 5692.290; 7.18900
 415.89;  870.540;  461.470; 5772.693; 7.70199
 416.48;  972.664;  539.137; 6084.377; 7.81799
 417.07; 1080.995;  596.137; 6697.705; 7.94645
 417.65; 1134.114;  573.803; 7487.800; 8.10402
 418.24; 1139.944;  521.468; 8240.700; 8.01215
 418.83; 1191.277;  529.134; 9129.396; 7.69911
 419.42; 1267.414;  557.133; 9928.818; 7.57901
 420.01; 1279.680;  503.465;10492.671; 7.77053
 420.60; 1334.322;  496.798;10833.323; 8.10257
 421.19; 1349.310;  511.464;10872.286; 8.08668
 421.78; 1401.917;  547.464;10857.102; 8.28790
 422.36; 1391.283;  514.131;10585.869; 8.70904
 422.95; 1404.457;  528.465;10226.378; 9.03280
 423.54; 1368.500;  542.464; 9866.872; 8.85886
 424.13; 1348.118;  587.796; 9831.117; 8.22564
 424.72; 1360.354;  581.128;10040.209; 8.23786
 425.31; 1380.642;  571.793;10487.493; 8.15725
 425.89; 1389.665;  541.792;10801.597; 8.26403
 426.48; 1362.808;  496.793;11180.976; 8.10557
 427.07; 1334.273;  444.128;11321.627; 8.18336
 427.66; 1419.017;  473.462;11580.502; 8.51311
 428.25; 1460.365;  489.460;11632.971; 8.71274
 428.84; 1590.950;  569.125;11869.479; 9.04242
 429.42; 1548.925;  500.458;11986.429; 9.12824
 430.01; 1603.442;  506.791;12271.999; 9.32114
 430.60; 1638.861;  484.790;12745.959; 9.41240
 431.19; 1752.178;  539.455;13157.304; 9.61117
 431.78; 1810.810;  520.121;13415.591;10.00886
 432.36; 1907.864;  537.786;13649.819;10.44901
 432.95; 1990.102;  522.452;13693.553;11.14295
 433.54; 2066.697;  608.120;13995.969;10.89478
 434.13; 2005.289;  568.120;14236.707;10.51439
 434.72; 1990.354;  538.454;14658.574;10.28249
 435.30; 2027.360;  538.453;14802.958;10.43785
 435.89; 2071.081;  531.453;14737.794;10.83761
 436.48; 2065.533;  545.453;14635.158;10.78859
 437.07; 1991.915;  434.785;14684.370;10.92755
 437.66; 1993.095;  420.450;14771.322;10.95854
 438.24; 2135.160;  446.449;15239.552;11.41553
 438.83; 2333.119;  520.448;16026.455;11.69012
 439.42; 2453.279;  545.448;16791.285;11.74351
 440.01; 2522.069;  547.448;17315.636;11.77599
 440.59; 2605.649;  589.449;17733.366;11.76044
 441.18; 2749.264;  597.781;18366.571;12.10821
 441.77; 2766.487;  578.114;18803.959;12.00698
 442.36; 2743.974;  497.447;18959.434;12.16840
 442.94; 2686.856;  443.780;18972.432;12.10599
 443.53; 2757.760;  452.778;19282.225;12.24137
 444.12; 2838.368;  448.111;19517.742;12.53437
 444.70; 2906.917;  497.111;19852.348;12.45041
 445.29; 2982.361;  525.445;20121.358;12.53790
 445.88; 2995.434;  502.109;20351.007;12.56153
 446.47; 3075.963;  477.107;20660.340;12.87631
 447.05; 3081.985;  441.441;20757.076;12.99760
 447.64; 3092.238;  470.441;21129.494;12.69079
 448.23; 3110.025;  502.774;21318.197;12.52557
 448.81; 3137.944;  503.774;21507.949;12.54118
 449.40; 3214.743;  526.774;21533.689;12.79564
 449.99; 3231.407;  502.772;21452.439;13.02472
 450.58; 3280.117;  534.770;21303.635;13.21857
 451.16; 3244.025;  525.437;21007.350;13.27311
 451.75; 3176.726;  536.771;20387.789;13.29884
 452.34; 3012.375;  522.104;19283.070;13.27368
 452.92; 2949.511;  547.438;18575.790;13.32386
 453.51; 2932.652;  524.770;18303.925;13.54329
 454.10; 3113.754;  522.103;19504.605;13.65285
 454.68; 3345.505;  484.436;21374.863;13.69560
 455.27; 3652.920;  464.435;23727.146;13.70642
 455.86; 3906.131;  449.767;25853.497;13.60573
 456.44; 4086.577;  428.433;27134.875;13.69761
 457.03; 4278.437;  472.433;28378.472;13.63864
 457.62; 4384.137;  494.433;29030.244;13.63096
 458.20; 4452.073;  485.099;29952.377;13.46230
 458.79; 4500.568;  449.099;30731.212;13.37908
 459.38; 4624.293;  451.765;31260.421;13.54336
 459.96; 4803.164;  508.431;31659.721;13.78669
 460.55; 4872.238;  552.764;31350.281;14.02539
 461.13; 4873.617;  516.098;31304.757;14.15300
 461.72; 4570.615;  449.430;29316.448;14.27645
 462.31; 4138.692;  413.429;26202.382;14.44519
 462.89; 3753.444;  452.429;23397.313;14.38671
 463.48; 3849.510;  502.096;23416.519;14.60833
 464.07; 4398.121;  493.096;27205.678;14.61867
 464.65; 4960.372;  488.429;31256.091;14.53455
 465.24; 5451.642;  509.762;34859.259;14.38705
 465.82; 5636.455;  565.761;36380.438;14.15815
 466.41; 5811.135;  575.759;36801.540;14.45207
 467.00; 5851.043;  535.760;37561.559;14.35562
 467.58; 6070.954;  551.428;38486.254;14.55002
 468.17; 6280.359;  546.094;39907.839;14.56812
 468.75; 6360.929;  535.426;39725.603;14.86470
 469.34; 6414.466;  494.425;39650.594;15.11905
 469.93; 6429.692;  451.757;39763.659;15.20643
 470.51; 6555.056;  449.756;40404.450;15.28056
 471.10; 6660.316;  509.756;40543.223;15.36355
 471.68; 6846.853;  531.090;40914.822;15.63937
 472.27; 7049.735;  575.757;41746.124;15.72485
 472.85; 7334.580;  593.758;43613.614;15.66910
 473.44; 7378.604;  562.091;43899.688;15.72887
 474.02; 7409.147;  530.757;43918.367;15.85335
 474.61; 7307.072;  452.757;42942.135;16.13183
 475.20; 7231.518;  491.091;43049.787;15.83796
 475.78; 7327.793;  447.423;43856.304;15.85014
 476.37; 7292.095;  435.088;44235.631;15.65507
 476.95; 7582.450;  442.753;44853.092;16.07665
 477.54; 7467.714;  458.421;43987.846;16.10242
 478.12; 7367.091;  437.420;42879.679;16.32729
 478.71; 6812.603;  416.419;40127.626;16.10675
 479.29; 6047.289;  445.753;34895.655;16.25995
 479.88; 5041.328;  479.086;28312.776;16.39108
 480.46; 4012.579;  500.085;21642.219;16.61372
 481.05; 3514.864;  498.087;18615.340;16.65140
 481.63; 3557.589;  466.087;19267.823;16.44264
 482.22; 3955.347;  404.753;21653.138;16.70995
 482.80; 4090.537;  422.086;22634.057;16.51565
 483.39; 3785.183;  437.419;20378.690;16.78812
 483.97; 3266.731;  481.751;17265.385;16.59343
 484.56; 3129.541;  475.084;16005.162;17.09236
 485.14; 3635.062;  497.750;18734.409;17.20333
 485.73; 4700.923;  493.083;24842.707;17.28093
 486.31; 5943.938;  504.082;31765.785;17.40102
 486.90; 6877.036;  472.082;36774.752;17.64320
 487.48; 7485.747;  468.082;40038.556;17.73460
 488.07; 7671.472;  422.749;40908.706;17.90429
 488.65; 7723.409;  461.084;41093.118;17.87340
 489.24; 7772.765;  493.417;40536.187;18.17893
 489.82; 7813.669;  488.749;40845.617;18.15037
 490.41; 7853.829;  515.416;40696.084;18.26354
 490.99; 7833.455;  498.083;40560.957;18.30965
 491.57; 7856.308;  552.749;39689.895;18.66145
 492.16; 7749.090;  531.082;38863.254;18.83016
 492.74; 7457.478;  546.082;37093.090;18.91098
 493.33; 7144.310;  532.747;35499.298;18.90825
 493.91; 6936.329;  554.746;34302.416;18.90970
 494.50; 6952.959;  532.079;34447.001;18.93232
 495.08; 6992.414;  532.412;34995.013;18.74496
 495.66; 7051.751;  498.412;35446.024;18.75189
 496.25; 7025.296;  489.745;35553.012;18.63931
 496.83; 7049.749;  457.412;35105.048;19.02680
 497.42; 6872.689;  436.079;34145.863;19.09419
 498.00; 6419.575;  424.745;30990.509;19.61289
 498.59; 5824.950;  443.078;27881.337;19.61448
 499.17; 5545.152;  451.411;25932.627;19.99018
 499.75; 5623.522;  444.746;26732.012;19.70070
 500.34; 6077.161;  416.080;29101.898;19.73477
 500.92; 6567.522;  398.412;31684.012;19.71869
 501.50; 6985.912;  416.744;33037.584;20.13795
 502.09; 6986.030;  421.076;32748.008;20.30800
 502.67; 6965.756;  440.409;32314.859;20.47203
 503.26; 6929.153;  478.076;31856.358;20.55905
 503.84; 6994.582;  531.075;31605.683;20.79996
 504.42; 6885.494;  533.075;31028.110;20.83099
 505.01; 6809.436;  536.076;30621.568;20.85178
 505.59; 6744.257;  526.409;30282.043;20.89637
 506.17; 6740.509;  513.074;29746.217;21.30265
 506.76; 6703.820;  517.406;29394.208;21.42347
 507.34; 6505.748;  507.073;28333.986;21.55710
 507.93; 6295.512;  529.406;27491.924;21.38564
 508.51; 6015.292;  488.073;26699.243;21.08726
 509.09; 6040.145;  448.740;27050.122;21.01923
 509.68; 5968.271;  468.740;26609.513;21.03814
 510.26; 6046.001;  514.740;26180.375;21.55123
 510.84; 5947.034;  528.073;25423.808;21.76662
 511.43; 5909.970;  492.739;25319.309;21.82030
 512.01; 5778.326;  485.073;24857.711;21.71801
 512.59; 5753.642;  507.073;24543.992;21.82713
 513.17; 5742.168;  500.739;23994.588;22.30979
 513.76; 5749.620;  482.072;23974.619;22.42221
 514.34; 5598.196;  489.739;23284.340;22.41082
 514.92; 5534.185;  514.739;22755.975;22.56820
 515.51; 5397.411;  496.405;21954.338;22.84006
 516.09; 5354.994;  477.738;21834.109;22.83747
 516.67; 5222.222;  475.071;21512.150;22.56564
 517.26; 5144.780;  553.738;21235.782;22.19820
 517.84; 5129.982;  590.405;20603.709;22.68279
 518.42; 5092.579;  581.737;19790.587;23.48315
 519.00; 5021.950;  530.402;19174.429;24.09108
 519.59; 4975.449;  584.403;18955.911;23.90139
 520.17; 4895.682;  581.737;19085.237;23.31421
 520.75; 4859.798;  557.403;19072.263;23.23752
 521.33; 4769.022;  469.737;18935.258;23.28277
 521.92; 4736.306;  478.737;18657.409;23.42068
 522.50; 4642.402;  460.404;18118.038;23.68380
 523.08; 4532.512;  461.070;17652.744;23.68264
 523.67; 4388.223;  431.069;17253.911;23.52251
 524.25; 4338.801;  470.402;17114.636;23.24167
 524.83; 4254.001;  444.736;16978.557;23.03923
 525.41; 4352.463;  493.402;16857.287;23.58279
 525.99; 4300.275;  456.402;16534.402;23.90765
 526.58; 4280.139;  432.068;16161.015;24.46490
 527.16; 4132.366;  400.401;15988.717;23.94078
 527.74; 4147.050;  429.735;16079.407;23.75331
 528.32; 4139.840;  518.736;15941.424;23.47908
 528.91; 4064.891;  497.735;15718.279;23.43646
 529.49; 4004.230;  531.401;15369.657;23.40456
 530.07; 3969.076;  525.067;15279.545;23.34212
 530.65; 4010.708;  576.400;15155.802;23.55589
 531.23; 3988.039;  525.065;15213.856;23.57562
 531.82; 3907.881;  519.065;15197.067;23.08772
 532.40; 3826.993;  483.066;15188.351;22.73963
 532.98; 3834.128;  499.734;15224.042;22.64551
 533.56; 3871.947;  480.068;15245.149;22.97231
 534.14; 3956.284;  504.401;15379.826;23.20527
 534.73; 3883.339;  482.067;15097.995;23.27099
 535.31; 3862.734;  510.067;14906.519;23.28814
 535.89; 3793.850;  473.734;14736.878;23.27759
 536.47; 3860.554;  536.733;14854.690;23.21435
 537.05; 3882.851;  489.732;14859.609;23.61272
 537.63; 3876.463;  492.733;14695.773;23.82399
 538.22; 3823.832;  455.400;14530.521;23.93182
 538.80; 3786.560;  485.732;14644.074;23.31366
 539.38; 3808.271;  482.398;14859.937;23.13242
 539.96; 3853.209;  492.731;15197.081;22.85363
 540.54; 3923.292;  465.732;15287.608;23.32741
 541.12; 3953.044;  470.399;15435.509;23.27176
 541.70; 4070.169;  497.732;15552.924;23.72893
 542.29; 4100.235;  489.398;15589.797;23.91220
 542.87; 4163.868;  473.398;15699.025;24.23854
 543.45; 4070.537;  397.064;15707.428;23.99338
 544.03; 4152.434;  463.397;15995.807;23.75058
 544.61; 4296.540;  548.398;16366.374;23.69545
 545.19; 4359.776;  589.066;16542.043;23.63640
 545.77; 4342.707;  518.398;16639.891;23.72180
 546.35; 4204.498;  462.064;16273.277;23.66949
 546.93; 4271.180;  461.064;16238.324;24.14941
 547.52; 4342.166;  552.731;16090.645;24.38832
 548.10; 4380.785;  519.064;16191.164;24.64074
 548.68; 4350.973;  521.730;15957.744;24.80720
 549.26; 4271.132;  419.730;15984.902;24.74372
 549.84; 4351.002;  453.397;16093.501;24.92058
 550.42; 4391.686;  441.397;16409.220;24.73906
 551.00; 4460.440;  473.730;16647.156;24.64975
 551.58; 4513.154;  513.063;16821.334;24.52799
 552.16; 4557.161;  534.729;16883.355;24.60410
 552.74; 4617.499;  558.397;16925.341;24.80061
 553.32; 4504.682;  496.396;16770.573;24.62973
 553.90; 4587.523;  505.729;17015.807;24.72304
 554.48; 4513.415;  445.395;17097.838;24.42897
 555.06; 4605.520;  459.396;17281.767;24.64649
 555.64; 4611.417;  460.063;17447.754;24.43742
 556.23; 4739.984;  501.062;17399.174;25.08518
 556.81; 4836.557;  493.728;17843.580;25.03093
 557.39; 4787.422;  424.729;17828.800;25.06708
 557.97; 4808.727;  413.063;18476.347;24.33480
 558.55; 4815.597;  436.730;18259.309;24.56921
 559.13; 4915.064;  476.061;18293.452;24.91388
 559.71; 5051.488;  477.061;18162.398;25.86565
 560.29; 5235.338;  490.062;18686.904;26.07747
 560.87; 5375.824;  506.729;18896.374;26.47737
 561.45; 5408.926;  534.394;18886.053;26.56180
 562.03; 5373.185;  524.727;18931.523;26.34059
 562.61; 5452.912;  511.394;19347.678;26.23404
 563.19; 5429.829;  472.729;19461.390;26.10558
 563.77; 5510.516;  447.729;19509.786;26.55950
 564.35; 5461.398;  432.062;19591.422;26.25002
 564.93; 5598.160;  453.062;19940.718;26.40183
 565.51; 5573.044;  483.728;20134.055;25.89940
 566.09; 5640.080;  510.395;20008.803;26.30822
 566.67; 5687.940;  512.063;19981.674;26.58439
 567.25; 5702.927;  482.063;20013.965;26.72993
 567.83; 5764.500;  484.729;20329.405;26.60548
 568.40; 5733.707;  461.394;20360.741;26.49490
 568.98; 5921.141;  506.060;20598.415;26.95095
 569.56; 5992.754;  492.727;20803.585;27.07925
 570.14; 6087.753;  520.395;21071.520;27.09029
 570.72; 6125.095;  503.062;20942.850;27.50534
 571.30; 6207.232;  490.729;21045.577;27.81097
 571.88; 6287.651;  461.730;21379.144;27.85202
 572.46; 6258.025;  449.729;21797.634;27.20781
 573.04; 6381.100;  473.061;22060.259;27.36825
 573.62; 6520.756;  515.727;22343.560;27.51088
 574.20; 6607.771;  473.729;22469.877;27.88689
 574.78; 6601.760;  457.061;22453.541;27.93492
 575.36; 6588.013;  437.727;22413.352;27.98685
 575.94; 6760.534;  526.727;22510.904;28.35588
 576.52; 6696.938;  504.061;22583.090;28.04868
 577.09; 6694.367;  542.395;22620.690;27.86434
 577.67; 6605.639;  458.062;22729.833;27.60255
 578.25; 6786.413;  471.061;23019.832;28.00752
 578.83; 6848.225;  423.394;23063.948;28.37753
 579.41; 6988.796;  455.395;23036.623;28.93289
 579.99; 7139.467;  450.729;23411.937;29.13060
 580.57; 7456.979;  490.728;24218.854;29.35862
 581.15; 7618.794;  497.061;24733.980;29.38382
 581.73; 7852.425;  554.395;25161.506;29.65822
 582.30; 7732.872;  527.729;24936.492;29.51867
 582.88; 7739.401;  569.395;25087.433;29.24380
 583.46; 7554.858;  522.062;24728.479;29.05344
 584.04; 7668.742;  547.062;24836.787;29.31972
 584.62; 7682.852;  539.061;25114.493;29.06883
 585.20; 7575.526;  521.727;24897.210;28.93809
 585.78; 7519.572;  468.062;24650.294;29.15988
 586.35; 7587.368;  405.729;24800.297;29.43950
 586.93; 7668.847;  403.729;25198.114;29.30147
 587.51; 7582.866;  423.727;25108.565;29.00217
 588.09; 7513.609;  517.727;24424.802;29.26281
 588.67; 7657.989;  508.060;24371.945;29.96129
 589.25; 7716.457;  538.060;24598.695;29.83461
 589.82; 7722.238;  449.060;24873.686;29.77805
 590.40; 7550.859;  484.395;24729.485;29.14596
 590.98; 7424.872;  444.730;24134.129;29.46526
 591.56; 7138.718;  448.730;22998.321;29.66789
 592.14; 6904.243;  411.730;21901.216;30.21251
 592.71; 6573.103;  428.064;20554.783;30.53175
 593.29; 6455.683;  505.731;19749.514;30.91883
 593.87; 6303.618;  543.398;18991.313;31.22423
 594.45; 6521.112;  554.731;19764.446;31.05918
 595.03; 6863.379;  597.398;20683.240;31.19601
 595.60; 7016.965;  582.731;21527.022;30.72071
 596.18; 6973.040;  555.397;21696.587;30.35611
 596.76; 6624.649;  441.732;21115.712;29.90676
 597.34; 6641.229;  497.400;21024.050;29.93099
 597.91; 6797.270;  528.734;21255.480;30.24371
 598.49; 7105.388;  538.733;21894.178;30.74932
 599.07; 7189.044;  465.066;21915.176;31.34706
 599.65; 7260.285;  467.065;21701.617;31.99135
 600.22; 7175.731;  492.065;21567.965;31.71236
 600.80; 7329.907;  553.065;21845.813;31.82700
 601.38; 7320.485;  536.065;22027.538;31.56796
 601.96; 7332.931;  475.398;22191.887;31.57754
 602.53; 7213.920;  445.731;21996.551;31.40572
 603.11; 7184.886;  406.731;21613.446;31.96231
 603.69; 7405.401;  431.732;21846.946;32.56409
 604.27; 7593.230;  487.399;22310.085;32.56167
 604.84; 7749.909;  513.065;22756.485;32.53476
 605.42; 7654.815;  523.065;22740.861;32.09927
 606.00; 7610.913;  445.400;22404.769;32.63078
 606.57; 7546.270;  476.734;22235.814;32.49005
 607.15; 7671.335;  513.734;22064.651;33.21251
 607.73; 7535.566;  532.734;21902.335;32.77007
 608.31; 7343.863;  505.734;21672.253;32.30635
 608.88; 7240.219;  480.400;21616.655;31.98210
 609.46; 7282.368;  502.734;21515.418;32.26448
 610.04; 7443.518;  497.734;21999.854;32.30279
 610.61; 7416.797;  460.402;21956.322;32.36147
 611.19; 7359.102;  453.403;21975.202;32.08700
 611.77; 7400.931;  440.736;21768.008;32.63519
 612.34; 7299.615;  447.402;21688.090;32.25984
 612.92; 7307.281;  412.402;21559.453;32.60445
 613.50; 7088.252;  425.068;20826.363;32.66059
 614.07; 7207.079;  466.068;20818.860;33.12082
 614.65; 7525.566;  497.068;21232.001;33.89689
 615.23; 7654.277;  496.400;21795.168;33.60700
 615.80; 7692.727;  468.400;21864.527;33.76465
 616.38; 7424.330;  468.734;21410.969;33.21325
 616.96; 7530.052;  504.068;21432.108;33.57211
 617.53; 7603.563;  470.736;21578.265;33.79281
 618.11; 7779.661;  453.070;21749.507;34.40290
 618.68; 7831.205;  429.736;21698.156;34.80027
 619.26; 7746.078;  426.069;21465.462;34.79192
 619.84; 7587.376;  419.070;21049.321;34.74658
 620.41; 7482.165;  413.736;20707.064;34.83130
 620.99; 7411.816;  474.734;20494.076;34.65190
 621.56; 7508.631;  463.735;21003.506;34.29881
 622.14; 7752.198;  490.402;21727.498;34.19392
 622.72; 7859.745;  471.737;22017.432;34.28995
 623.29; 7788.121;  541.070;21627.868;34.36772
 623.87; 7501.207;  528.404;20867.465;34.28282
 624.44; 7490.087;  567.403;20730.459;34.33351
 625.02; 7552.614;  571.403;20761.359;34.57764
 625.60; 7615.668;  508.071;20594.165;35.38566
 626.17; 7576.133;  452.070;20356.238;35.79181
 626.75; 7521.200;  417.070;20108.777;36.07676
 627.32; 7670.496;  482.404;20397.298;36.09405
 627.90; 7624.797;  481.072;20189.835;36.24644
 628.47; 7721.859;  520.072;20505.692;36.03484
 629.05; 7565.306;  528.737;20355.409;35.49042
 629.63; 7575.547;  538.071;20163.123;35.85966
 630.20; 7589.385;  482.072;19884.926;36.63025
 630.78; 7680.864;  446.072;19751.374;37.47567
 631.35; 7721.263;  439.404;19873.277;37.46993
 631.93; 7530.253;  429.737;19749.941;36.75176
 632.50; 7473.227;  429.070;19674.529;36.60166
 633.08; 7408.700;  428.405;19411.534;36.77104
 633.65; 7661.577;  479.073;19680.762;37.40559
 634.23; 7694.883;  493.074;19964.344;36.98685
 634.80; 7858.175;  510.406;20360.247;37.01677
 635.38; 7919.087;  485.406;20356.972;37.40863
 635.95; 7905.017;  491.741;20301.059;37.42318
 636.53; 7742.653;  491.074;19753.631;37.64598
 637.10; 7483.217;  450.741;19100.981;37.70716
 637.68; 7539.440;  430.742;18895.608;38.49851
 638.25; 7655.843;  444.075;19187.491;38.47627
 638.83; 7874.815;  488.407;19372.133;39.11521
 639.40; 8032.900;  518.740;19560.426;39.46163
 639.98; 8093.565;  480.740;19328.058;40.39209
 640.55; 8052.536;  468.739;19233.362;40.41540
 641.13; 7978.584;  412.739;19050.844;40.59343
 641.70; 8117.966;  437.405;19352.992;40.60440
 642.28; 8363.680;  420.072;19873.474;40.83403
 642.85; 8663.062;  449.739;20042.623;41.91993
 643.42; 8792.110;  443.738;20040.438;42.60090
 644.00; 8809.158;  482.405;19687.920;43.35605
 644.57; 8586.873;  460.738;19310.402;43.11024
 645.15; 8498.587;  502.738;19125.217;42.93655
 645.72; 8460.302;  482.071;19133.699;42.77498
 646.30; 8512.017;  511.738;19139.847;42.94735
 646.87; 8415.731;  461.071;19119.663;42.63269
 647.45; 8393.780;  455.071;19167.811;42.42408
 648.02; 8248.494;  449.404;18860.626;42.36052
 648.59; 8198.209;  431.738;18576.442;42.80297
 649.17; 8125.590;  479.071;18128.257;43.32505
 649.74; 8123.305;  487.071;18143.739;43.24844
 650.32; 8163.686;  545.404;18329.221;42.83829
 650.89; 8149.735;  471.404;18665.703;42.20185
 651.46; 8243.449;  496.737;18714.184;42.52359
 652.04; 8179.164;  492.404;18304.000;43.15593
 652.61; 7965.879;  517.070;17791.815;43.11964
 653.19; 7681.260;  498.737;17440.630;42.39504
 653.76; 7529.641;  472.403;17384.445;41.72907
 654.33; 7429.356;  492.403;17307.261;41.25490
 654.91; 7468.071;  489.737;17447.743;41.15068
 655.48; 7380.119;  546.736;17438.891;40.45300
 656.05; 7229.167;  532.070;17402.040;39.69834
 656.63; 7065.215;  541.403;17323.188;38.87436
 657.20; 7148.263;  517.403;17805.337;38.35542
 657.78; 7215.645;  520.069;18052.485;38.18969
 658.35; 7059.693;  460.736;17933.634;37.76681
 658.92; 6798.407;  459.403;17492.116;37.21665
 659.50; 6749.789;  441.402;17315.931;37.38407
 660.07; 6748.837;  465.402;17411.746;37.07841
 660.64; 6774.551;  440.069;17495.895;37.13970
 661.22; 6661.266;  449.069;17763.377;35.87898
 661.79; 6763.981;  470.402;17818.525;36.27815
 662.36; 6745.029;  469.402;17750.674;36.31461
 662.93; 6695.077;  468.735;17561.156;36.42750
 663.51; 6523.125;  466.068;17502.638;35.55327
 664.08; 6358.506;  451.402;17357.786;34.94008
 664.65; 6361.221;  418.735;17574.268;34.63889
 665.23; 6360.603;  402.735;17875.750;34.09754
 665.80; 6444.984;  393.068;18026.232;34.32121
 666.37; 6543.699;  550.401;17798.380;34.74782
 666.95; 6513.413;  551.068;17671.529;34.82585
 667.52; 6434.128;  524.735;17967.344;33.87907
 668.09; 6277.176;  358.068;18220.826;33.13659
 668.66; 6304.558;  360.734;18371.975;33.00063
 669.24; 6483.272;  471.401;18506.790;33.33375
 669.81; 6536.987;  486.401;18504.605;33.58041
 670.38; 6450.035;  467.734;18224.087;33.69105
 670.95; 6355.417;  445.734;17919.569;33.82018
 671.53; 6413.798;  475.067;17783.384;34.31143
 672.10; 6552.513;  510.400;17679.533;35.19172
 672.67; 6526.894;  485.734;17345.681;35.83143
 673.24; 6493.275;  465.734;17072.163;36.29643
 673.82; 6587.323;  467.400;17258.645;36.44711
 674.39; 6683.705;  502.067;17276.127;36.85237
 674.96; 6749.086;  515.067;17400.275;36.92000
 675.53; 6703.134;  508.067;17045.424;37.46105
 676.11; 6841.849;  432.066;17513.239;37.52542
 676.68; 6960.230;  419.066;17636.388;37.99176
 677.25; 7084.945;  432.400;17780.536;38.34732
 677.82; 6950.993;  439.066;17371.352;38.45864
 678.39; 6838.041;  432.066;17075.500;38.48950
 678.97; 6896.756;  431.399;17573.982;37.71518
 679.54; 7015.137;  456.066;17766.464;37.89093
 680.11; 7037.519;  477.399;18129.946;37.16245
 680.68; 7005.233;  445.399;18228.761;36.88748
 681.25; 6970.948;  424.732;18222.243;36.78164
 681.83; 7063.663;  397.065;18152.058;37.54773
 682.40; 7189.711;  415.399;18205.207;38.07974
 682.97; 7316.092;  447.399;18828.355;37.36853
 683.54; 7296.140;  457.399;19138.504;36.60780
 684.11; 7128.188;  465.732;19009.319;35.92863
 684.68; 7150.570;  465.065;18950.134;36.16705
 685.26; 7358.285;  455.732;19255.616;36.71593
 685.83; 7360.333;  418.398;19024.431;37.31013
 686.40; 7214.381;  419.398;18503.580;37.57418
 686.97; 7078.429;  398.731;18161.728;37.60456
 687.54; 7345.477;  455.731;18796.210;37.56579
 688.11; 7309.525;  411.731;19077.026;36.95518
 688.68; 7231.240;  446.398;19084.174;36.40371
 689.26; 7050.288;  421.064;18793.989;36.08148
 689.83; 7243.669;  444.731;18897.138;36.84581
 690.40; 7337.717;  447.397;18671.620;37.80858
 690.97; 7287.098;  403.397;18758.102;37.50374
 691.54; 7189.147;  426.731;18933.250;36.54072
 692.11; 7105.528;  450.064;19164.399;35.56345
 692.68; 7130.909;  518.397;18903.881;35.96594
 693.25; 7246.624;  608.397;18559.696;36.97909
 693.82; 7182.672;  665.730;18518.178;36.50447
 694.40; 7037.720;  626.730;18257.326;36.36287
 694.97; 6904.102;  485.063;18401.142;35.82837
 695.54; 7066.816;  393.730;18982.290;35.89889
 696.11; 7366.198;  397.396;20150.105;35.28023
 696.68; 7501.579;  408.063;20755.921;34.86124
 697.25; 7462.294;  398.063;20463.736;35.20555
 697.82; 7264.675;  410.730;19927.218;35.11874
 698.39; 7148.057;  416.396;19726.700;34.86046
 698.96; 7089.771;  443.396;20105.182;33.80352
 699.53; 6898.153;  438.729;19727.330;33.48829
 700.10; 6758.534;  442.396;19281.812;33.52619
 700.67; 6635.249;  421.396;18632.961;34.12037
 701.24; 6725.630;  395.396;18978.109;34.06518
 701.81; 6741.012;  394.396;19136.924;33.86211
 702.38; 6862.393;  372.062;19660.073;33.64956
 702.95; 6864.774;  374.729;19786.888;33.43289
 703.52; 6872.489;  382.729;20015.037;33.05653
 704.09; 6755.870;  401.728;19677.185;32.96494
 704.66; 6751.585;  455.728;19568.000;32.94144
 705.23; 6623.633;  412.728;19257.816;32.95769
 705.80; 6594.681;  436.728;19628.631;32.08620
 706.37; 6581.063;  393.395;19556.779;32.28901
 706.94; 6574.111;  432.061;19584.595;32.06912
 707.51; 6618.825;  448.395;19760.077;31.95180
 708.08; 6534.873;  478.394;20043.558;30.95542
 708.65; 6438.588;  449.728;20189.040;30.33976
 709.22; 6236.303;  456.728;19651.856;30.10960
 709.79; 6081.018;  440.728;19270.004;29.95490
 710.36; 6077.399;  450.394;19369.153;29.74299
 710.93; 6160.114;  395.394;19795.635;29.71468
 711.50; 6175.162;  380.394;19919.117;29.65786
 712.07; 6128.543;  372.394;19608.598;29.92352
 712.64; 6049.591;  379.060;19669.080;29.39619
 713.21; 5970.639;  367.727;19819.896;28.80354
 713.78; 5961.354;  373.060;20445.711;27.84034
 714.35; 5929.735;  391.727;20508.859;27.52882
 714.92; 5886.450;  397.727;20435.008;27.39256
 715.49; 5792.498;  383.727;20004.823;27.56610
 716.06; 5701.546;  384.060;19788.972;27.40279
 716.63; 5735.594;  395.393;19764.120;27.57126
 717.20; 5670.976;  410.726;19413.602;27.68133
 717.77; 5518.690;  406.393;19021.417;27.46329
 718.34; 5289.072;  397.393;18766.233;26.63031
 718.90; 5115.120;  410.726;18770.381;25.62354
 719.47; 5073.501;  401.726;18791.863;25.40370
 720.04; 5111.216;  395.392;19031.345;25.30498
 720.61; 5052.264;  379.392;19153.493;24.88999
 721.18; 4896.979;  360.059;18889.975;24.48430
 721.75; 4736.027;  338.059;18564.124;24.13010
 722.32; 4748.742;  337.392;18622.939;24.12479
 722.89; 4799.456;  365.725;19100.088;23.66630
 723.46; 4823.838;  415.059;19353.903;23.27903
 724.02; 4800.886;  457.392;19584.718;22.70832
 724.59; 4755.267;  460.392;19350.533;22.73607
 725.16; 4745.648;  443.392;19297.349;22.81885
 725.73; 4645.697;  397.725;19182.164;22.61431
 726.30; 4593.745;  376.391;19355.979;22.22047
 726.87; 4583.126;  365.725;19694.128;21.81971
 727.44; 4547.507;  368.391;19432.276;21.92164
 728.00; 4577.555;  401.058;19773.091;21.55942
 728.57; 4401.603;  398.058;19477.573;20.98348
 729.14; 4429.652;  387.391;19822.055;20.79923
 729.71; 4289.700;  376.724;19459.870;20.50488
 730.28; 4241.081;  360.724;19419.686;20.35975
 730.85; 4137.462;  362.391;19200.834;20.03919
 731.41; 4002.844;  436.391;18486.316;19.75882
 731.98; 3943.558;  475.057;18390.798;19.36008
 732.55; 3948.940;  490.390;18782.947;18.90687
 733.12; 4061.988;  427.724;19671.762;18.88514
 733.69; 4123.036;  415.390;20102.244;18.83310
 734.25; 4061.084;  410.390;20019.726;18.61712
 734.82; 3976.132;  391.057;20139.207;18.15398
 735.39; 3935.513;  365.390;20063.356;18.12433
 735.96; 3869.562;  346.057;19865.838;18.05095
 736.52; 3883.276;  366.390;20000.653;17.91199
 737.09; 3900.991;  399.056;20167.468;17.71480
 737.66; 3994.372;  424.056;20759.284;17.55730
 738.23; 3870.754;  386.056;20092.099;17.68340
 738.80; 3717.135;  365.056;19611.581;17.41654
 739.36; 3582.850;  358.723;18943.063;17.34862
 739.93; 3634.565;  378.389;18936.544;17.54579
 740.50; 3632.613;  407.056;18826.360;17.51183
 741.07; 3599.327;  412.056;18972.175;17.17269
 741.63; 3671.709;  401.389;19638.657;16.99992
 742.20; 3720.424;  376.722;19771.139;17.24054
 742.77; 3706.472;  378.389;19531.287;17.37639
 743.33; 3569.520;  380.055;19106.102;17.03223
 743.90; 3608.234;  402.055;19501.251;16.78698
 744.47; 3672.282;  412.722;20240.066;16.43972
 745.04; 3822.664;  431.722;20933.215;16.53998
 745.60; 3850.379;  440.388;20843.363;16.71320
 746.17; 3920.760;  530.055;20547.512;16.93874
 746.74; 3738.808;  502.388;19924.994;16.66316
 747.30; 3757.523;  495.055;20715.809;16.13425
 747.87; 3760.571;  393.055;21450.958;15.99170
 748.44; 3916.619;  450.054;22028.106;16.06523
 749.00; 3944.000;  441.721;21890.255;16.32876
 749.57; 3934.382;  444.054;21725.070;16.40113
 750.14; 3943.096;  397.721;21991.219;16.41872
 750.70; 3907.811;  363.387;21818.700;16.52003
 751.27; 3947.859;  387.721;21675.516;16.72385
 751.84; 3859.574;  358.387;21091.998;16.88653
 752.40; 3935.622;  402.054;21323.479;16.88971
 752.97; 3938.670;  401.720;21319.961;16.90845
 753.54; 4008.385;  429.720;21323.777;17.12767
 754.10; 4013.766;  404.054;21391.592;17.19931
 754.67; 4057.814;  436.053;21536.407;17.16445
 755.24; 4130.529;  438.720;21920.222;17.18599
 755.80; 4097.910;  443.053;21607.371;17.26896
 756.37; 4043.958;  376.386;21613.519;17.26962
 756.94; 4148.673;  396.720;22113.668;17.27661
 757.50; 4212.721;  380.053;22258.150;17.51829
 758.07; 4325.769;  373.386;22431.298;17.91821
 758.63; 4241.484;  337.719;22199.447;17.85661
 759.20; 4333.865;  397.053;22591.262;17.73802
 759.77; 4415.580;  421.053;22920.077;17.75422
 760.33; 4528.961;  440.052;22925.226;18.18491
 760.90; 4445.676;  374.719;22471.708;18.42313
 761.46; 4309.057;  379.052;21760.523;18.38042
 762.03; 4305.105;  365.386;21761.005;18.41368
 762.60; 4579.154;  450.719;22570.153;18.66429
 763.16; 4761.868;  460.052;22878.302;19.18890
 763.73; 4707.583;  485.385;22536.451;19.14736
 764.29; 4505.298;  405.052;22107.599;18.89292
 764.86; 4400.679;  383.718;21977.081;18.60276
 765.42; 4521.727;  363.718;22619.563;18.68277
 765.99; 4608.442;  370.385;22735.711;18.94923
 766.55; 4784.490;  392.385;23092.193;19.34864
 767.12; 4766.205;  398.718;22579.342;19.69055
 767.68; 4819.253;  410.718;22369.490;20.07642
 768.25; 4823.967;  380.051;22284.306;20.28791
 768.82; 4860.682;  350.718;22295.121;20.55178
 769.38; 4959.397;  389.051;22645.603;20.53483
 769.95; 5110.778;  389.384;23549.085;20.38625
 770.51; 5249.826;  408.051;24284.900;20.27812
 771.08; 5170.208;  378.051;23650.382;20.59165
 771.64; 5035.256;  344.717;22731.864;20.95193
 772.21; 5140.637;  418.050;22328.346;21.55419
 772.77; 5145.019;  416.050;22169.494;21.73894
 773.34; 5175.400;  454.050;21831.643;22.08551
 773.90; 5005.781;  389.050;21070.458;22.32310
 774.47; 5104.496;  411.717;20875.940;22.93163
 775.03; 5241.877;  429.050;21079.422;23.30625
 775.60; 5318.592;  450.050;21690.904;22.92065
 776.16; 5232.974;  439.716;22072.052;22.15783
 776.73; 5171.355;  445.383;22032.201;21.89286
 777.29; 5133.403;  429.383;21455.016;22.37279
 777.85; 5197.451;  397.383;21414.165;22.83922
 778.42; 5285.166;  423.716;21745.980;22.79988
 778.98; 5341.880;  408.383;22017.128;22.83102
 779.55; 5399.262;  412.716;22135.944;22.95490
 780.11; 5456.977;  376.716;22074.092;23.41417
 780.68; 5615.025;  393.382;22539.241;23.57841
 781.24; 5717.406;  382.382;22990.389;23.59794
 781.81; 5597.121;  360.716;22431.538;23.72546
 782.37; 5526.502;  375.049;22027.020;23.79208
 782.93; 5554.217;  400.382;21621.502;24.28635
 783.50; 5587.932;  409.382;22023.983;23.95857
 784.06; 5642.980;  376.382;22132.799;24.20710
 784.63; 5694.694;  379.048;22028.947;24.55275
 785.19; 5826.076;  387.048;21763.429;25.44410
 785.75; 5817.457;  410.382;21401.578;25.75878
 786.32; 5828.505;  418.715;21383.393;25.80431
 786.88; 5871.553;  424.715;21538.541;25.79750
 787.45; 5953.935;  390.715;21774.690;26.01584
 788.01; 5983.649;  357.381;21860.839;26.16448
 788.57; 6082.031;  339.714;22271.987;26.18204
 789.14; 6277.745;  354.714;22843.469;26.33775
 789.70; 6383.127;  358.381;22841.618;26.79661
 790.26; 6336.842;  368.047;21801.766;27.84768
 790.83; 6108.223;  372.047;20550.248;28.42759
 791.39; 6045.604;  359.381;20172.063;28.69992
 791.95; 6056.319;  365.047;20659.879;28.04296
 792.52; 6283.034;  372.714;21805.694;27.57582
 793.08; 6471.082;  390.047;22321.842;27.72703
 793.64; 6496.797;  372.714;22560.324;27.60136
 794.21; 6560.845;  352.380;22803.473;27.65328
 794.77; 6378.893;  362.047;22277.288;27.45508
 795.33; 6355.607;  389.713;21750.770;27.92883
 795.90; 6367.655;  391.713;21123.585;28.82490
 796.46; 6401.370;  395.713;21162.400;28.91967
 797.02; 6496.752;  394.380;21530.882;28.87125
 797.59; 6386.466;  403.380;21177.031;28.80132
 798.15; 6501.514;  464.379;21131.846;29.21081
 798.71; 6434.896;  456.713;20990.328;29.11413
 799.28; 6436.610;  457.379;21199.810;28.82609
 799.84; 6324.325;  374.713;21108.625;28.69508
 800.40; 6213.040;  354.379;20607.107;28.92776
 800.96; 6137.088;  353.379;20254.589;29.06210
 801.53; 6223.136;  361.046;20295.404;29.40697
 802.09; 6339.517;  356.045;20275.553;30.03825
 802.65; 6448.899;  365.379;20067.368;30.87770
 803.21; 6483.280;  381.045;20432.516;30.43285
 803.78; 6521.995;  386.712;20642.998;30.28829
 804.34; 6523.710;  420.712;20699.480;30.09551
 804.90; 6397.758;  410.378;20094.962;30.41659
 805.46; 6435.139;  447.045;20010.777;30.60814
 806.03; 6506.187;  438.712;20266.259;30.60124
 806.59; 6560.902;  444.711;20256.408;30.87161
 807.15; 6558.950;  433.045;20078.890;31.18168
 807.71; 6389.998;  408.045;19648.705;31.09017
 808.28; 6440.713;  415.711;19655.853;31.31475
 808.84; 6543.094;  414.044;19788.335;31.63496
 809.40; 6580.476;  424.378;19894.817;31.61766
 809.96; 6530.857;  418.711;19552.299;31.94459
 810.52; 6488.905;  403.044;19407.114;32.02399
 811.09; 6610.953;  395.377;19640.596;32.29673
 811.65; 6733.001;  419.711;19897.411;32.41291
 812.21; 6742.382;  412.710;19744.893;32.74163
 812.77; 6613.764;  418.044;19008.375;33.32765
 813.33; 6442.812;  377.710;18369.190;33.71097
 813.90; 6433.193;  381.377;18218.672;33.92788
 814.46; 6489.575;  382.710;18430.488;33.83721
 815.02; 6580.289;  362.377;18944.969;33.46095
 815.58; 6458.671;  379.043;19141.451;32.40324
 816.14; 6473.719;  394.376;18947.933;32.76645
 816.70; 6546.767;  447.043;18689.415;33.43712
 817.26; 6537.815;  420.376;17993.230;34.81187
 817.83; 6581.863;  364.043;17728.712;35.80731
 818.39; 6358.578;  355.709;16927.861;36.22263
 818.95; 6381.959;  390.709;16724.009;36.68120
 819.51; 6172.007;  419.709;16210.158;36.42897
 820.07; 6092.722;  414.376;15921.306;36.61812
 820.63; 6198.103;  378.042;15917.788;37.45274
 821.19; 6467.818;  372.709;16503.270;37.78609
 821.75; 6661.533;  348.709;16666.085;38.68774
 822.32; 6582.581;  382.709;16555.901;38.33425
 822.88; 6388.962;  402.709;16101.716;38.13141
 823.44; 6288.344;  385.375;16620.864;36.35843
 824.00; 6244.058;  402.708;16768.346;35.69277
 824.56; 6182.106;  388.042;16731.828;35.45118
 825.12; 6252.821;  443.708;16567.310;36.02863
 825.68; 6249.869;  421.042;16480.792;36.29463
 826.24; 6203.584;  407.041;16248.274;36.59149
 826.80; 6277.965;  391.041;16301.423;37.00052
 827.36; 6255.013;  386.375;16151.238;37.22607
 827.92; 6251.728;  399.374;16267.720;36.88068
 828.48; 6143.109;  376.041;16188.535;36.47159
 829.04; 6277.491;  400.374;16662.350;36.14024
 829.60; 6417.539;  394.374;16799.832;36.71440
 830.17; 6543.254;  444.707;16671.647;37.58285
 830.73; 6413.635;  390.374;16006.129;38.57169
 831.29; 6382.683;  388.707;15760.611;38.99306
 831.85; 6058.064;  368.040;15012.760;38.85376
 832.41; 6072.779;  407.040;14982.908;38.87068
 832.97; 6218.827;  400.374;15154.057;39.43730
 833.53; 6399.875;  378.040;15648.205;39.43530
 834.09; 6278.923;  358.040;15576.020;38.90715
 834.65; 5973.305;  403.040;14875.502;38.48871
 835.21; 5813.353;  381.707;14307.318;39.00472
 835.77; 5701.067;  380.373;13841.799;39.52549
 836.33; 5695.116;  337.040;13653.615;40.23614
 836.89; 5830.164;  354.373;13893.430;40.44440
 837.45; 5946.878;  372.040;14111.912;40.57417
 838.01; 5984.926;  365.373;14352.727;40.17596
 838.57; 5899.308;  368.706;14142.209;40.15392
 839.13; 6047.022;  357.706;14418.691;40.46172
 839.69; 6158.404;  390.373;14541.839;40.75925
 840.24; 6078.785;  418.039;14573.655;39.98940
 840.80; 5890.500;  413.372;14173.470;39.80442
 841.36; 5949.881;  420.372;14339.618;39.72564
 841.92; 6095.929;  382.039;14360.767;40.87561
 842.48; 6093.644;  379.705;14231.249;41.25128
 843.04; 5959.692;  355.039;13915.397;41.33116
 843.60; 5964.074;  374.039;13813.213;41.59508
 844.16; 6118.455;  391.038;13798.361;42.71857
 844.72; 6264.836;  401.038;13892.843;43.46192
 845.28; 6726.551;  449.372;14675.658;44.12381
 845.84; 7126.932;  461.705;15565.807;44.12859
 846.40; 7292.647;  439.371;15814.955;44.57246
 846.96; 7017.029;  385.038;15199.437;44.76719
 847.52; 6612.077;  397.371;14285.253;44.74913
 848.07; 6352.125;  442.704;13662.068;44.70276
 848.63; 6391.839;  457.704;13693.883;44.83269
 849.19; 6490.221;  404.371;13916.032;45.04147
 849.75; 6553.269;  398.037;13944.847;45.43676
 850.31; 6441.317;  373.371;13747.995;45.36910
 850.87; 6444.032;  434.037;13583.811;45.70417
 851.43; 6236.413;  400.704;13086.626;46.00146
 851.99; 6152.461;  436.037;12522.441;47.29632
 852.54; 6160.509;  380.370;12295.590;48.51055
 853.10; 6483.891;  400.704;12919.738;48.59150
 853.66; 6562.605;  376.370;13200.220;48.24008
 854.22; 6507.653;  387.037;13075.702;48.23688
 854.78; 6615.701;  361.370;12893.850;49.90498
 855.34; 6847.749;  343.037;12925.332;51.69735
 855.89; 7026.131;  345.036;13186.814;52.02624
 856.45; 6830.179;  362.370;13034.296;51.04046
 857.01; 6773.894;  435.703;13122.778;49.95786
 857.57; 6657.275;  431.036;13027.927;49.42679
 858.13; 6669.323;  445.703;13079.075;49.26333
 858.69; 6486.704;  384.703;12890.557;48.79316
 859.24; 6451.419;  361.369;12733.039;49.22577
 859.80; 6273.467;  331.369;12606.187;48.40885
 860.36; 6042.515;  331.702;12331.336;47.59156
 860.92; 5738.563;  356.369;12080.818;45.90573
 861.47; 5689.278;  344.702;12137.300;45.32145
 862.03; 5578.326;  329.035;12220.115;44.14478
 862.59; 5378.041;  350.035;12141.597;42.64071
 863.15; 5287.756;  353.369;12184.079;41.70829
 863.71; 5372.470;  363.702;12724.894;40.52011
 864.26; 5589.852;  347.702;13458.376;39.98383
 864.82; 5628.566;  360.702;13703.191;39.48187
 865.38; 5600.948;  367.035;13527.340;39.77045
 865.94; 5479.662;  354.035;13256.822;39.72497
 866.49; 5256.044;  349.701;12865.970;39.19972
 867.05; 4932.759;  380.368;12372.119;37.96269
 867.61; 4602.140;  367.034;11909.267;36.69226
 868.16; 4286.855;  366.368;11562.083;35.01775
 868.72; 4165.569;  344.034;11612.898;33.91234
 869.28; 4166.617;  371.034;11874.046;32.99643
 869.84; 4222.332;  368.367;12161.195;32.68058
 870.39; 4143.714;  372.367;12307.010;31.59999
 870.95; 3964.095;  371.367;12030.159;30.81561
 871.51; 3860.143;  363.367;12129.641;29.71864
 872.06; 3802.191;  337.367;12195.122;29.21990
 872.62; 3758.572;  338.034;12401.604;28.35428
 873.18; 3619.287;  340.700;12212.753;27.61601
 873.73; 3424.002;  382.367;11674.235;26.93651
 874.29; 3175.383;  367.033;11150.050;26.04420
 874.85; 3058.383;  401.367;10970.050;25.14047
 875.40; 3028.717;  398.367;11316.717;24.09109
 875.96; 3148.383;  433.033;11993.383;23.48848
 876.52; 3217.383;  428.700;12513.383;23.07618
 877.07; 3160.383;  431.700;12370.383;22.85581
 877.63; 2999.383;  420.367;11869.717;22.52544
 878.19; 2794.050;  391.367;11249.717;22.12752
 878.74; 2682.383;  380.033;11089.383;21.49850
 879.30; 2626.050;  356.367;11260.717;20.81448
 879.86; 2751.383;  360.033;11782.383;20.93571
 880.41; 2902.383;  360.367;12469.383;20.99276
 880.97; 2955.050;  345.367;12610.050;21.27803
 881.52; 2940.050;  343.700;12556.050;21.26004
 882.08; 2835.717;  332.367;12109.050;21.25683
 882.64; 2901.050;  359.367;12182.717;21.49715
 883.19; 2807.717;  348.033;12049.383;21.02051
 883.75; 2936.717;  334.700;12605.717;21.20457
 884.30; 2965.383;  328.700;12922.717;20.93600
 884.86; 3075.383;  350.367;13210.717;21.18929
 885.42; 3050.717;  375.700;12776.383;21.57153
 885.97; 2946.717;  387.367;12157.717;21.74404
 886.53; 2905.717;  404.700;12010.383;21.54993
 887.08; 2912.050;  401.700;11993.383;21.65647
 887.64; 3040.383;  409.700;12196.050;22.31975
 888.19; 3113.383;  379.700;12223.050;23.08201
 888.75; 3169.383;  361.700;12497.717;23.13513
 889.31; 3194.717;  356.367;12556.717;23.26450
 889.86; 3154.717;  363.700;12579.383;22.84781
 890.42; 3162.383;  363.700;12512.717;23.03630
 890.97; 3165.717;  348.033;12546.717;23.09826
 891.53; 3264.383;  375.033;12298.717;24.23203
 892.08; 3219.050;  396.367;11867.050;24.60780
 892.64; 3251.717;  407.367;11471.050;25.70889
 893.19; 3208.050;  371.367;11192.383;26.21457
 893.75; 3249.050;  365.367;11232.717;26.53529
 894.30; 3269.050;  345.033;11268.717;26.76768
 894.86; 3300.383;  354.367;11375.050;26.73171
 895.41; 3334.050;  362.033;11077.050;27.73693
 895.97; 3333.383;  369.367;10754.383;28.54128
 896.52; 3415.383;  381.033;10706.383;29.38738
 897.08; 3384.050;  370.700;10673.050;29.24915
 897.63; 3337.717;  361.367;10628.383;28.98943
 898.19; 3255.717;  343.033;10226.717;29.46961
 898.74; 3244.050;  314.033; 9990.050;30.28123
 899.30; 3332.383;  308.367;10078.717;30.95096
 899.85; 3426.050;  300.700;10362.717;31.06087
 900.41; 3526.050;  360.033;10525.717;31.14416
 900.96; 3462.383;  378.367;10328.717;30.99405
 901.51; 3498.050;  398.367;10183.717;31.67678
 902.07; 3683.717;  453.033;10590.717;31.86806
 902.62; 3785.383;  453.700;10806.717;32.18080
 903.18; 3720.717;  441.367;10676.383;32.04049
 903.73; 3586.050;  363.700;10225.717;32.67435
 904.29; 3664.383;  345.033;10212.717;33.63859
 904.84; 3748.383;  355.033;10237.383;34.33748
 905.39; 3752.050;  338.700;10158.717;34.75911
 905.95; 3766.383;  362.033;10147.383;34.79027
 906.50; 3909.717;  459.367;10552.717;34.18439
 907.06; 3962.717;  454.033;10773.717;33.99991
 907.61; 4036.050;  457.700;10740.050;34.80090
 908.16; 3992.717;  364.700;10337.383;36.37954
 908.72; 3999.383;  371.700;10028.383;37.56656
 909.27; 3836.383;  370.367; 9730.383;37.03003
 909.82; 3767.383;  389.700; 9568.383;36.79921
 910.38; 3826.050;  389.700; 9726.050;36.80614
 910.93; 4044.383;  382.367;10044.050;37.90247
 911.49; 4126.383;  346.033;10146.717;38.57231
 912.04; 4102.050;  341.367; 9863.717;39.49323
 912.59; 4005.717;  345.033; 9516.717;39.91288
 913.15; 3919.717;  363.033; 9299.717;39.79869
 913.70; 3731.717;  348.700; 9076.050;38.76339
 914.25; 3580.717;  349.367; 8912.717;37.73465
 914.81; 3572.050;  357.700; 8810.383;38.02757
 915.36; 3711.050;  398.700; 8993.717;38.53803
 915.91; 3930.050;  397.033; 9431.383;39.10648
 916.47; 4019.383;  384.367; 9898.383;38.20696
 917.02; 4144.050;  364.033;10255.383;38.21538
 917.57; 4219.717;  352.700;10258.050;39.03968
 918.12; 4384.383;  361.367;10327.717;40.36600
 918.68; 4519.717;  399.367;10344.383;41.43130
 919.23; 4559.050;  416.367;10266.717;42.05620
 919.78; 4463.383;  399.367;10062.383;42.05743
 920.34; 4320.717;  408.367; 9693.050;42.13768
 920.89; 4107.050;  388.700; 9337.050;41.55347
 921.44; 4044.717;  406.367; 8994.717;42.36378
 921.99; 3997.717;  347.367; 8962.050;42.37358
 922.55; 4152.383;  365.700; 9189.383;42.91500
 923.10; 4211.717;  353.033; 9378.717;42.75226
 923.65; 4210.717;  401.367; 9298.050;42.81764
 924.20; 4110.383;  399.367; 9003.383;43.13121
 924.76; 4055.050;  392.367; 8787.717;43.62752
 925.31; 4187.050;  345.367; 9104.050;43.86143
 925.86; 4262.050;  345.700; 9394.717;43.27929
 926.41; 4340.050;  339.367; 9650.383;42.96720
 926.97; 4222.717;  345.033; 9343.050;43.09487
 927.52; 4175.717;  350.367; 9219.383;43.13161
 928.07; 4171.717;  412.033; 9082.383;43.36253
 928.62; 4275.050;  439.700; 9245.717;43.55374
 929.17; 4225.383;  435.033; 9050.717;43.99361
 929.73; 4089.383;  393.367; 8735.050;44.30780
 930.28; 4006.050;  390.700; 8451.717;44.84980
 930.83; 4088.717;  397.700; 8556.050;45.24220
 931.38; 4133.717;  409.367; 8727.717;44.77270
 931.93; 4148.717;  378.367; 8875.717;44.37089
 932.48; 4088.050;  388.033; 8865.717;43.64420
 933.04; 4098.383;  377.367; 8842.050;43.95931
 933.59; 4048.383;  391.367; 8648.717;44.28802
 934.14; 3984.050;  348.033; 8426.717;45.00754
 934.69; 3950.383;  358.700; 8319.383;45.11778
 935.24; 3945.383;  350.367; 8389.050;44.72146
 935.79; 3996.050;  377.033; 8373.050;45.26024
 936.34; 3959.717;  384.033; 8271.050;45.33632
 936.90; 3905.050;  396.367; 8251.383;44.66806
 937.45; 3908.050;  385.700; 8392.383;43.99262
 938.00; 4008.050;  368.033; 8507.050;44.72305
 938.55; 4096.050;  374.700; 8588.383;45.30671
 939.10; 4084.050;  380.033; 8547.383;45.35151
 939.65; 4029.383;  378.367; 8603.050;44.39097
 940.20; 3938.050;  369.700; 8436.383;44.23565
 940.75; 3962.717;  433.700; 8479.050;43.86405
 941.31; 3927.383;  433.033; 8497.717;43.32904
 941.86; 3892.717;  442.367; 8403.717;43.33876
 942.41; 3875.383;  407.367; 8257.050;44.18034
 942.96; 3796.383;  386.367; 7893.050;45.42641
 943.51; 3920.717;  369.700; 7914.383;47.06648
 944.06; 3852.383;  352.033; 7972.383;45.93424
 944.61; 3878.383;  423.367; 8161.383;44.64990
 945.16; 3789.717;  421.033; 8149.383;43.58865
 945.71; 3778.050;  399.367; 8118.717;43.76901
 946.26; 3758.383;  355.700; 8013.383;44.43489
 946.81; 3736.383;  375.700; 7903.717;44.64235
 947.36; 3720.717;  376.700; 7614.050;46.20499
 947.91; 3831.717;  377.367; 7557.383;48.11061
 948.46; 3807.050;  358.367; 7390.717;49.04027
 949.01; 3858.050;  358.367; 7476.717;49.16425
 949.56; 3705.717;  341.033; 7488.383;47.07596
 950.11; 3683.383;  331.700; 7438.383;47.16241
 950.66; 3576.717;  340.700; 7292.717;46.54788
 951.21; 3551.717;  330.033; 7098.050;47.60159
 951.76; 3535.717;  386.700; 7087.050;46.99779
 952.31; 3497.717;  379.367; 6796.383;48.59501
 952.86; 3543.717;  416.700; 6839.383;48.68708
 953.41; 3533.717;  362.367; 6867.717;48.74988
 953.96; 3651.717;  361.700; 7220.383;47.96863
 954.51; 3712.383;  348.700; 7247.050;48.76069
 955.06; 3620.050;  348.367; 7028.383;48.97717
 955.61; 3495.050;  363.700; 6741.050;49.10112
 956.16; 3442.717;  351.033; 6695.050;48.73385
 956.71; 3499.050;  372.700; 6798.050;48.65649
 957.26; 3496.717;  367.700; 6774.050;48.84242
 957.81; 3466.050;  363.033; 6552.050;50.13747
 958.36; 3575.050;  368.700; 6622.383;51.27138
 958.91; 3620.383;  373.033; 6678.717;51.49878
 959.46; 3537.050;  393.700; 6665.050;50.12238
 960.01; 3312.383;  364.033; 6331.050;49.41079
 960.56; 3233.717;  346.367; 6260.050;48.82490
 961.11; 3385.050;  368.033; 6427.717;49.78836
 961.65; 3406.383;  371.367; 6514.717;49.40328
 962.20; 3386.717;  375.700; 6492.717;49.22361
 962.75; 3183.050;  328.033; 6349.717;47.41227
 963.30; 3247.050;  337.367; 6415.383;47.87225
 963.85; 3251.383;  334.033; 6385.050;48.21256
 964.40; 3250.717;  337.033; 6266.050;49.14278
 964.95; 3194.383;  354.367; 6133.717;49.14076
 965.50; 3152.383;  366.700; 6064.383;48.89151
 966.05; 3221.717;  376.033; 6130.383;49.45273
 966.59; 3301.717;  367.033; 6182.717;50.46154
 967.14; 3359.383;  353.700; 6192.383;51.47879
 967.69; 3332.383;  340.367; 6072.383;52.19832
 968.24; 3227.383;  319.367; 5933.050;51.80229
 968.79; 3248.717;  336.700; 5953.383;51.84584
 969.34; 3265.383;  340.367; 5986.050;51.80979
 969.89; 3417.717;  344.367; 6223.383;52.27660
 970.43; 3557.717;  383.700; 6331.383;53.36560
 970.98; 3574.050;  385.700; 6317.050;53.75420
 971.53; 3488.050;  401.700; 6080.050;54.35294
 972.08; 3398.383;  391.033; 5932.383;54.27107
 972.63; 3367.717;  416.367; 5835.050;54.46618
 973.17; 3315.717;  386.033; 5842.383;53.69310
 973.72; 3197.717;  349.033; 5730.050;52.93950
 974.27; 3207.383;  323.700; 5770.383;52.94384
 974.82; 3327.717;  373.700; 5876.383;53.68320
 975.37; 3393.050;  398.367; 5987.717;53.57838
 975.91; 3420.383;  399.367; 5998.050;53.95941
 976.46; 3314.717;  382.700; 5885.383;53.28340
 977.01; 3308.383;  357.367; 5918.717;53.06296
 977.56; 3273.383;  354.367; 5945.050;52.21216
 978.10; 3256.717;  353.367; 5940.050;51.96912
 978.65; 3261.717;  373.700; 5932.050;51.95817
 979.20; 3370.717;  406.700; 6063.717;52.39540
 979.75; 3549.050;  421.367; 6260.383;53.56524
 980.29; 3557.383;  408.700; 6088.050;55.44091
 980.84; 3478.383;  403.367; 5888.717;56.05871
 981.39; 3294.050;  368.367; 5598.717;55.93666
 981.94; 3202.717;  394.033; 5566.050;54.30538
 982.48; 3080.050;  370.700; 5503.050;52.78966
 983.03; 3168.383;  371.700; 5630.717;53.17883
 983.58; 3318.717;  315.700; 5820.383;54.55385
 984.12; 3591.050;  335.033; 6206.717;55.45287
 984.67; 3686.050;  335.700; 6301.050;56.16351
 985.22; 3618.717;  386.700; 6210.717;55.49463
 985.77; 3425.717;  378.367; 5910.717;55.08238
 986.31; 3290.050;  390.367; 5834.383;53.26367
 986.86; 3297.050;  364.033; 5939.717;52.60372
 987.41; 3371.050;  373.033; 6087.383;52.46470
 987.95; 3508.717;  374.700; 6282.050;53.05284
 988.50; 3623.383;  386.700; 6379.383;54.01059
 989.05; 3785.050;  391.367; 6522.717;55.34969
 989.59; 3850.050;  412.033; 6563.383;55.89044
 990.14; 3853.050;  405.700; 6530.383;56.28618
 990.69; 3727.717;  396.700; 6307.717;56.35269
 991.23; 3649.717;  385.367; 6208.383;56.05943
 991.78; 3647.383;  415.033; 6280.050;55.11238
 992.32; 3588.717;  440.700; 6131.050;55.32202
 992.87; 3442.717;  436.367; 5778.717;56.27392
 993.42; 3284.717;  384.033; 5548.050;56.17107
 993.96; 3233.050;  361.700; 5572.383;55.10506
 994.51; 3206.050;  361.033; 5604.050;54.26297
 995.05; 3190.050;  380.367; 5541.717;54.43699
 995.60; 3193.717;  375.367; 5545.383;54.51336
 996.15; 3178.050;  371.367; 5610.050;53.57612
 996.69; 3148.050;  370.367; 5482.717;54.33281
 997.24; 3121.717;  370.700; 5442.050;54.24624
 997.78; 3171.717;  395.033; 5442.383;55.01270
 998.33; 3172.383;  398.367; 5443.050;54.98892
 998.88; 3166.717;  376.367; 5371.383;55.86268
 999.42; 3095.717;  354.367; 5271.717;55.74852
 999.97; 3047.050;  369.367; 5186.717;55.58416
1000.51; 3006.717;  409.700; 5186.717;54.36482
1001.06; 3057.050;  408.700; 5228.383;54.94863
1001.60; 3107.717;  413.033; 5409.050;53.93664
1002.15; 3199.383;  412.033; 5517.383;54.59665
1002.69; 3143.050;  405.033; 5519.383;53.53597
1003.24; 3269.383;  402.367; 5706.050;54.05709
1003.78; 3282.050;  389.700; 5795.383;53.50572
1004.33; 3326.050;  383.700; 5818.383;54.14023
1004.87; 3115.383;  364.700; 5430.050;54.30391
1005.42; 2898.383;  370.033; 5065.717;53.84413
1005.96; 2786.050;  394.700; 4834.383;53.86308
1006.51; 2791.050;  413.700; 4825.717;53.88352
1007.05; 2842.383;  410.700; 4895.383;54.22196
1007.60; 2934.383;  408.700; 5158.050;53.17956
1008.14; 3027.717;  428.033; 5411.050;52.17087
1008.69; 3043.050;  463.033; 5300.717;53.33166
1009.23; 2895.050;  441.033; 4836.383;55.83211
1009.78; 2683.383;  425.367; 4375.383;57.16474
1010.32; 2503.383;  391.700; 4132.717;56.44678
1010.87; 2419.383;  402.700; 4145.050;53.88815
1011.41; 2460.383;  403.033; 4244.383;53.55799
1011.96; 2539.050;  385.367; 4424.717;53.31757
1012.50; 2625.050;  389.700; 4654.383;52.41538
1013.05; 2585.717;  375.367; 4628.383;51.97135
1013.59; 2679.717;  388.033; 4760.050;52.41708
1014.13; 2745.717;  412.700; 4725.717;54.09246
1014.68; 2806.383;  430.033; 4748.050;55.03337
1015.22; 2641.383;  413.033; 4518.050;54.28358
1015.77; 2398.383;  392.033; 4101.717;54.08413
1016.31; 2271.383;  398.367; 3920.050;53.18527
1016.85; 2349.717;  406.033; 4102.383;52.58386
1017.40; 2591.383;  381.367; 4636.050;51.94315
1017.94; 2867.050;  344.033; 5036.383;53.76872
1018.49; 3013.383;  337.367; 5182.717;55.22855
1019.03; 3050.383;  353.700; 5190.717;55.75096
1019.57; 2849.383;  344.367; 4890.050;55.10759
1020.12; 2609.717;  369.367; 4504.383;54.17995
1020.66; 2444.383;  374.700; 4115.717;55.32409
1021.20; 2412.383;  422.700; 4056.050;54.76168
1021.75; 2349.383;  406.367; 3920.050;55.29857
1022.29; 2248.717;  382.367; 3825.717;54.20158
1022.83; 2200.717;  360.033; 3779.050;53.83663
1023.38; 2248.717;  350.033; 3879.383;53.79697
1023.92; 2251.383;  373.367; 3970.383;52.21040
1024.46; 2230.717;  363.367; 3929.717;52.36026
1025.01; 2089.050;  369.367; 3677.717;51.98009
1025.55; 2028.383;  357.033; 3468.383;53.71784
1026.09; 2007.050;  349.367; 3393.050;54.46307
1026.64; 2080.383;  378.367; 3514.050;54.27897
1027.18; 2066.717;  408.033; 3501.050;53.62672
1027.72; 1967.717;  416.367; 3393.050;52.11673
1028.27; 1944.717;  366.033; 3359.050;52.74556
1028.81; 2048.717;  447.367; 3471.383;52.95440
1029.35; 2107.383;  468.367; 3480.717;54.40990
1029.89; 2141.383;  490.700; 3500.717;54.83967
1030.44; 2078.050;  388.367; 3421.383;55.70966
1030.98; 2035.383;  370.700; 3358.383;55.71820
1031.52; 1928.717;  396.033; 3147.383;55.70659
1032.07; 1764.717;  403.033; 2868.050;55.24033
1032.61; 1625.717;  418.700; 2671.383;53.58128
1033.15; 1539.383;  406.700; 2616.383;51.25998
1033.69; 1620.717;  402.033; 2764.717;51.58048
1034.23; 1745.383;  403.367; 3010.383;51.47710
1034.78; 1866.717;  403.700; 3182.050;52.65775
1035.32; 1876.383;  391.367; 3183.050;53.19431
1035.86; 1927.717;  472.033; 3099.717;55.39797
1036.40; 1853.717;  501.700; 2880.383;56.83887
1036.95; 1747.383;  519.033; 2624.717;58.33498
1037.49; 1524.050;  406.700; 2367.050;56.99747
1038.03; 1571.383;  453.700; 2396.383;57.53297
1038.57; 1628.383;  465.367; 2530.717;56.31088
1039.11; 1740.717;  474.700; 2698.383;56.93332
1039.66; 1716.383;  407.367; 2777.717;55.22462
1040.20; 1741.383;  419.367; 2840.050;54.61337
1040.74; 1709.717;  423.033; 2690.050;56.75668
1041.28; 1588.717;  401.700; 2404.717;59.26145
1041.82; 1433.717;  376.367; 2112.050;60.91837
1042.36; 1309.050;  370.700; 1971.050;58.63405
1042.91; 1293.050;  388.700; 1960.717;57.52802
1043.45; 1368.383;  385.700; 2155.717;55.51831
1043.99; 1507.717;  394.367; 2417.050;55.04322
1044.53; 1616.050;  389.700; 2632.050;54.69039
1045.07; 1663.717;  380.367; 2606.050;57.66094
1045.61; 1662.383;  462.033; 2566.383;57.04137
1046.15; 1558.717;  468.367; 2342.050;58.19286
1046.69; 1380.383;  464.700; 2093.383;56.22231
1047.24; 1213.383;  372.367; 1780.050;59.74473
1047.78; 1170.717;  357.033; 1719.050;59.74107
1048.32; 1215.383;  364.367; 1784.717;59.91598
1048.86; 1285.383;  382.700; 1958.050;57.30049
1049.40; 1326.717;  376.367; 2057.717;56.52303
1049.94; 1420.050;  374.367; 2161.050;58.52651
1050.48; 1489.383;  358.033; 2210.383;61.07647
1051.02; 1483.717;  354.367; 2197.717;61.26617
1051.56; 1390.717;  366.700; 2093.050;59.31686
1052.10; 1284.717;  385.700; 1964.383;56.94725
1052.64; 1240.050;  382.033; 1861.383;57.99957
1053.18; 1244.050;  381.367; 1852.717;58.63210
1053.72; 1222.050;  370.700; 1841.050;57.90118
1054.26; 1240.383;  410.033; 1862.717;57.15974
1054.81; 1216.717;  420.033; 1840.383;56.09063
1055.35; 1245.050;  420.367; 1846.717;57.81774
1055.89; 1278.383;  394.700; 1905.717;58.48270
1056.43; 1400.050;  442.700; 2026.383;60.45085
1056.97; 1395.050;  451.700; 2040.050;59.39182
1057.51; 1326.383;  442.700; 1995.050;56.92552
1058.05; 1204.383;  359.700; 1880.383;55.54630
1058.59; 1240.383;  353.367; 1936.383;56.03331
1059.13; 1285.383;  380.033; 1974.717;56.77303
1059.67; 1328.383;  404.367; 1990.717;58.24797
1060.21; 1326.717;  418.033; 1939.050;59.74184
1060.75; 1347.717;  385.367; 1932.383;62.20683
1061.29; 1338.383;  386.367; 1961.717;60.43207
1061.82; 1307.050;  391.700; 1914.717;60.10112
1062.36; 1210.383;  392.367; 1813.383;57.56559
1062.90; 1115.383;  374.367; 1634.383;58.81007
1063.44; 1053.050;  352.033; 1543.717;58.82575
1063.98; 1072.383;  368.033; 1539.050;60.14859
1064.52; 1080.050;  360.700; 1597.383;58.16768
1065.06; 1131.717;  349.700; 1680.050;58.78278
1065.60; 1211.717;  367.367; 1773.717;60.03840
1066.14; 1300.717;  366.367; 1885.717;61.49669
1066.68; 1371.050;  371.700; 2016.050;60.77477
1067.22; 1403.383;  348.033; 2070.717;61.26198
1067.76; 1464.383;  377.033; 2118.050;62.45489
1068.30; 1446.383;  385.700; 2054.383;63.56409
1068.84; 1392.383;  389.700; 1919.717;65.53414
1069.37; 1285.050;  379.033; 1737.717;66.68343
1069.91; 1169.383;  370.700; 1558.383;67.24716
1070.45; 1069.050;  382.700; 1452.050;64.18385
1070.99; 1177.383;  581.033; 1548.050;61.66905
1071.53; 1185.717;  625.033; 1588.050;58.22156
1072.07; 1228.717;  616.367; 1728.383;55.06662
1072.61; 1173.383;  426.367; 1758.717;56.06760
1073.15; 1277.717;  405.033; 1970.717;55.73818
1073.68; 1414.050;  414.700; 2108.050;59.01615
1074.22; 1466.383;  422.700; 2209.383;58.41457
1074.76; 1440.717;  406.367; 2103.050;60.96306
1075.30; 1304.383;  398.700; 1876.050;61.30459
1075.84; 1156.383;  408.700; 1618.050;61.82522
1076.38; 1118.383;  452.700; 1502.717;63.39741
1076.91; 1113.050;  450.033; 1494.717;63.46580
1077.45; 1152.383;  439.033; 1579.717;62.53708
1077.99; 1139.717;  402.033; 1621.383;60.49808
1078.53; 1105.717;  415.033; 1626.383;57.01765
1079.07; 1047.383;  397.033; 1518.050;58.01430
1079.60; 1001.383;  381.033; 1452.050;57.92160
1080.14; 1027.717;  364.367; 1472.050;59.88625
1080.68; 1129.383;  364.033; 1642.717;59.85454
1081.22; 1323.050;  393.700; 1986.717;58.33900
1081.76; 1498.050;  431.367; 2250.383;58.64066
1082.29; 1585.717;  443.367; 2364.717;59.45559
1082.83; 1514.717;  438.367; 2190.717;61.42323
1083.37; 1398.050;  421.367; 1983.383;62.52708
1083.91; 1226.050;  424.700; 1694.717;63.09760
1084.44; 1045.050;  406.367; 1419.050;63.06842
1084.98;  891.050;  415.700; 1173.717;62.70970
1085.52;  781.050;  420.033; 1038.717;58.35242
1086.05;  781.383;  419.367; 1058.383;56.65215
1086.59;  853.383;  389.033; 1228.050;55.34455
1087.13; 1022.717;  384.367; 1505.717;56.92692
1087.67; 1176.383;  394.367; 1785.050;56.23255
1088.20; 1296.050;  399.367; 2001.383;55.97216
1088.74; 1368.383;  415.033; 2126.383;55.70748
1089.28; 1450.383;  408.700; 2245.383;56.71546
1089.81; 1551.717;  421.033; 2357.717;58.38246
1090.35; 1584.383;  413.367; 2450.717;57.47744
1090.89; 1538.717;  418.367; 2351.383;57.95863
1091.42; 1402.717;  431.367; 2113.717;57.73769
1091.96; 1273.050;  418.367; 1780.717;62.73596
1092.50; 1136.383;  411.367; 1532.383;64.67492
1093.03;  999.383;  413.700; 1297.050;66.30252
1093.57;  850.050;  422.700; 1124.050;60.93249
1094.11;  742.050;  429.033;  959.717;58.98370
1094.64;  698.050;  448.367;  891.050;56.40224
1095.18;  711.717;  457.033;  891.383;58.63551
1095.72;  730.717;  469.700;  951.050;54.22596
1096.25;  756.050;  426.367; 1046.717;53.14473
1096.79;  762.717;  406.700; 1087.383;52.30283
1097.33;  864.717;  398.367; 1175.050;60.04378
1097.86;  930.717;  406.033; 1259.050;61.50915
1098.40; 1036.717;  409.033; 1395.383;63.63698
1098.93; 1070.717;  388.033; 1502.050;61.28125
1099.47; 1107.383;  372.033; 1558.383;61.98424
1100.01; 1130.383;  361.367; 1581.717;63.01607

