
Integration time [ms]:   1.000
Averaging Nr. [scans]: 1
Smoothing Nr. [pixels]: 1
Data measured with spectrometer [name]: 7413129SP
Wave   ;Sample   ;Dark     ;Reference;Scope Corrected for Dark
[nm]   ;[counts] ;[counts] ;[counts] 

 175.41;  298.558;  335.550;  578.257;-36.99161
 176.01;  323.542;  348.217;  605.501;-24.67540
 176.61;  350.538;  363.884;  651.073;-13.34591
 177.21;  353.562;  358.549;  668.685;-4.98776
 177.81;  355.557;  357.883;  702.559;-2.32623
 178.41;  338.579;  354.882;  647.489;-16.30205
 179.01;  336.646;  357.211;  577.570;-20.56456
 179.61;  327.664;  367.543;  536.711;-39.87864
 180.21;  334.954;  353.546;  594.243;-18.59131
 180.81;  349.230;  359.216;  665.733;-9.98584
 181.42;  357.219;  359.883;  671.781;-2.66406
 182.02;  354.902;  358.882;  603.542;-3.98006
 182.62;  343.878;  355.217;  588.909;-11.33907
 183.22;  352.169;  338.886;  625.805;13.28288
 183.82;  354.804;  344.555;  648.309;10.24929
 184.42;  344.429;  355.578;  616.156;-11.14870
 185.02;  348.651;  368.959;  608.754;-20.30881
 185.62;  340.542;  364.320;  611.509;-23.77805
 186.22;  365.218;  361.653;  595.408; 3.56470
 186.82;  348.586;  356.651;  559.337;-8.06431
 187.42;  356.249;  377.651;  575.242;-21.40149
 188.02;  341.504;  378.989;  615.855;-37.48473
 188.62;  346.698;  374.664;  610.524;-27.96655
 189.22;  356.941;  352.670;  608.159; 4.27092
 189.82;  354.571;  342.672;  599.193;11.89843
 190.43;  353.810;  331.678;  633.388;22.13163
 191.03;  351.672;  347.687;  675.105; 3.98506
 191.63;  341.568;  355.026;  707.719;-13.45847
 192.23;  362.401;  371.370;  683.342;-8.96919
 192.83;  343.174;  363.051;  603.397;-19.87678
 193.43;  349.375;  348.059;  583.611; 1.31662
 194.03;  341.547;  346.735;  606.027;-5.18896
 194.63;  359.437;  348.430;  664.089;11.00740
 195.23;  366.607;  355.460;  661.069;11.14641
 195.83;  359.143;  354.802;  670.658; 4.34152
 196.43;  352.191;  352.465;  668.253;-0.27400
 197.03;  342.353;  369.143;  658.432;-26.78921
 197.63;  345.279;  376.480;  634.155;-31.20129
 198.23;  352.135;  390.135;  658.103;-38.00080
 198.83;  363.565;  379.817;  647.581;-16.25157
 199.43;  369.656;  371.519;  676.502;-1.86267
 200.03;  360.097;  364.512;  632.644;-4.41550
 200.63;  374.433;  377.450;  717.255;-3.01724
 201.23;  356.151;  376.052;  721.123;-19.90139
 201.83;  358.646;  373.355;  771.424;-14.70921
 202.43;  339.439;  360.347;  696.073;-20.90817
 203.03;  342.496;  365.010;  673.562;-22.51450
 203.63;  337.978;  363.001;  637.135;-25.02283
 204.23;  350.410;  370.328;  637.061;-19.91777
 204.83;  366.679;  362.332;  616.028; 4.34667
 205.43;  378.363;  362.331;  594.498;16.03238
 206.03;  377.493;  356.656;  626.570;20.83705
 206.63;  369.229;  361.652;  630.714; 7.57711
 207.23;  358.531;  357.321;  648.557; 1.21040
 207.83;  339.166;  354.656;  627.390;-15.49007
 208.43;  333.220;  351.986;  667.805;-18.76606
 209.03;  338.904;  357.985;  697.920;-19.08121
 209.63;  339.497;  358.656;  673.993;-19.15931
 210.22;  368.192;  378.988;  678.076;-10.79559
 210.82;  373.956;  381.648;  647.288;-7.69246
 211.42;  395.568;  384.985;  662.518;10.58267
 212.02;  381.474;  382.658;  615.724;-1.18370
 212.62;  392.520;  390.321;  628.595; 2.19842
 213.22;  375.574;  380.985;  596.359;-5.41026
 213.82;  377.183;  379.655;  623.510;-2.47167
 214.42;  376.454;  380.659;  605.535;-4.20488
 215.02;  386.135;  387.658;  620.582;-1.52281
 215.62;  384.200;  376.987;  629.954; 7.21297
 216.22;  383.942;  372.316;  681.579;11.62568
 216.82;  375.963;  372.981;  658.483; 2.98212
 217.42;  380.304;  383.314;  661.334;-3.01039
 218.02;  367.642;  375.981;  656.794;-8.33858
 218.62;  386.642;  375.314;  715.789;11.32787
 219.21;  388.636;  367.648;  666.964;20.98812
 219.81;  388.599;  355.317;  614.342;33.28272
 220.41;  375.601;  351.650;  573.712;23.95089
 221.01;  374.613;  345.316;  623.701;29.29727
 221.61;  370.283;  378.982;  646.457;-8.69909
 222.21;  372.607;  381.983;  630.542;-9.37581
 222.81;  363.240;  387.985;  565.317;-24.74531
 223.41;  368.577;  362.318;  545.089; 6.25897
 224.01;  371.949;  356.316;  607.108;15.63360
 224.61;  370.972;  361.647;  646.382; 9.32487
 225.20;  364.265;  366.317;  625.659;-2.05125
 225.80;  359.551;  372.653;  646.069;-13.10218
 226.40;  356.241;  377.318;  661.010;-21.07757
 227.00;  369.957;  388.982;  668.637;-19.02515
 227.60;  351.035;  377.644;  587.368;-26.60815
 228.20;  366.405;  370.641;  626.657;-4.23609
 228.80;  348.661;  358.646;  608.285;-9.98535
 229.40;  371.588;  373.651;  627.718;-2.06238
 229.99;  357.254;  359.984;  553.374;-2.72948
 230.59;  369.005;  349.645;  569.893;19.35911
 231.19;  354.051;  333.643;  620.102;20.40811
 231.79;  359.614;  342.982;  680.717;16.63125
 232.39;  346.520;  345.655;  685.605; 0.86551
 232.99;  353.851;  363.322;  686.526;-9.47103
 233.59;  338.522;  354.988;  607.642;-16.46632
 234.18;  349.512;  368.989;  627.061;-19.47638
 234.78;  367.214;  367.653;  639.646;-0.43915
 235.38;  388.622;  389.648;  669.266;-1.02665
 235.98;  395.657;  382.646;  680.852;13.01058
 236.58;  387.289;  387.982;  656.282;-0.69267
 237.18;  365.501;  372.989;  642.437;-7.48815
 237.77;  347.084;  381.661;  670.574;-34.57716
 238.37;  336.488;  365.323;  668.422;-28.83560
 238.97;  363.201;  373.654;  650.964;-10.45327
 239.57;  363.435;  367.660;  565.377;-4.22478
 240.17;  362.340;  372.666;  538.891;-10.32556
 240.76;  337.977;  359.001;  574.427;-21.02454
 241.36;  359.312;  367.334;  587.146;-8.02240
 241.96;  369.957;  367.002;  604.571; 2.95428
 242.56;  384.519;  376.675;  697.174; 7.84365
 243.16;  350.101;  370.681;  730.962;-20.57933
 243.76;  346.740;  377.682;  720.233;-30.94219
 244.35;  324.043;  362.018;  637.092;-37.97493
 244.95;  351.398;  360.350;  632.678;-8.95118
 245.55;  344.775;  358.680;  606.157;-13.90475
 246.15;  350.447;  369.680;  582.961;-19.23252
 246.74;  342.847;  356.009;  576.354;-13.16255
 247.34;  334.190;  352.675;  594.296;-18.48476
 247.94;  348.484;  361.678;  581.922;-13.19358
 248.54;  361.172;  374.676;  544.492;-13.50380
 249.14;  371.155;  358.344;  564.377;12.81135
 249.73;  381.885;  363.673;  608.686;18.21122
 250.33;  373.025;  367.331;  640.683; 5.69305
 250.93;  387.112;  391.659;  671.308;-4.54742
 251.53;  368.182;  369.322;  655.484;-1.13941
 252.12;  371.872;  355.987;  666.747;15.88477
 252.72;  360.554;  346.653;  601.148;13.90103
 253.32;  348.946;  348.649;  610.695; 0.29706
 253.92;  343.271;  339.316;  572.797; 3.95431
 254.51;  340.870;  336.320;  589.356; 4.54908
 255.11;  351.172;  332.989;  554.543;18.18280
 255.71;  363.522;  367.655;  574.663;-4.13213
 256.31;  355.907;  366.651;  570.010;-10.74424
 256.90;  371.283;  375.982;  563.134;-4.69866
 257.50;  343.233;  341.985;  596.158; 1.24827
 258.10;  358.140;  342.991;  621.375;15.14899
 258.69;  346.791;  336.325;  626.635;10.46585
 259.29;  354.502;  346.323;  593.469; 8.17980
 259.89;  349.581;  352.318;  571.528;-2.73675
 260.49;  346.275;  352.649;  562.251;-6.37410
 261.08;  364.891;  352.652;  572.915;12.23843
 261.68;  365.835;  357.323;  580.442; 8.51206
 262.28;  372.456;  360.325;  605.254;12.13059
 262.87;  368.759;  371.994;  606.473;-3.23441
 263.47;  353.765;  353.994;  566.954;-0.22842
 264.07;  363.166;  357.989;  562.723; 5.17659
 264.67;  354.189;  356.988;  535.669;-2.79859
 265.26;  360.813;  374.657;  564.211;-13.84416
 265.86;  336.842;  370.989;  578.638;-34.14668
 266.46;  342.192;  368.654;  613.415;-26.46204
 267.05;  341.447;  347.326;  608.361;-5.87861
 267.65;  343.042;  340.330;  598.137; 2.71145
 268.25;  339.028;  332.331;  566.429; 6.69626
 268.84;  345.668;  351.000;  531.732;-5.33198
 269.44;  348.944;  353.670;  514.571;-4.72587
 270.04;  363.931;  357.004;  533.572; 6.92732
 270.63;  362.945;  340.336;  593.264;22.60853
 271.23;  378.252;  357.671;  607.573;20.58050
 271.83;  363.514;  355.009;  607.381; 8.50519
 272.42;  371.179;  371.009;  591.333; 0.16993
 273.02;  361.218;  352.007;  590.014; 9.21101
 273.62;  361.235;  359.672;  556.134; 1.56274
 274.21;  354.919;  355.005;  538.245;-0.08595
 274.81;  341.536;  356.341;  522.607;-14.80547
 275.41;  343.501;  359.677;  536.376;-16.17517
 276.00;  349.833;  366.677;  544.995;-16.84377
 276.60;  377.109;  370.680;  558.168; 6.42901
 277.20;  387.787;  363.679;  558.453;24.10723
 277.79;  385.861;  359.675;  566.740;26.18640
 278.39;  375.460;  358.679;  562.961;16.78096
 278.98;  368.707;  355.684;  577.029;13.02250
 279.58;  357.781;  349.680;  569.649; 8.10167
 280.18;  354.522;  348.675;  548.925; 5.84708
 280.77;  350.865;  355.341;  577.168;-4.47641
 281.37;  353.528;  361.008;  558.745;-7.48005
 281.96;  360.840;  369.010;  596.503;-8.17004
 282.56;  357.175;  356.009;  611.228; 1.16565
 283.16;  367.533;  358.008;  619.872; 9.52509
 283.75;  359.188;  344.009;  584.899;15.17934
 284.35;  367.125;  354.679;  551.908;12.44549
 284.94;  356.731;  339.350;  607.318;17.38108
 285.54;  370.080;  360.015;  627.058;10.06423
 286.14;  364.844;  361.676;  716.942; 3.16757
 286.73;  367.595;  369.337;  710.503;-1.74213
 287.33;  364.942;  364.670;  725.201; 0.27263
 287.92;  377.599;  367.004;  642.942;10.59548
 288.52;  371.560;  366.673;  656.918; 4.88730
 289.12;  379.475;  373.011;  623.685; 6.46346
 289.71;  377.426;  370.348;  599.396; 7.07792
 290.31;  383.502;  384.676;  590.736;-1.17410
 290.90;  372.583;  377.671;  598.509;-5.08873
 291.50;  350.208;  375.341;  578.078;-25.13324
 292.09;  343.541;  352.007;  566.406;-8.46678
 292.69;  344.592;  358.004;  572.091;-13.41201
 293.28;  337.554;  353.340;  607.749;-15.78621
 293.88;  351.181;  361.676;  554.386;-10.49460
 294.48;  350.841;  355.343;  575.212;-4.50166
 295.07;  373.454;  359.679;  576.813;13.77497
 295.67;  358.135;  354.012;  605.166; 4.12264
 296.26;  353.918;  340.338;  569.880;13.57943
 296.86;  354.299;  338.335;  501.485;15.96433
 297.45;  377.217;  340.007;  489.336;37.21058
 298.05;  373.142;  337.345;  516.367;35.79744
 298.64;  352.162;  326.677;  573.556;25.48529
 299.24;  330.861;  336.342;  579.740;-5.48026
 299.83;  345.870;  360.674;  580.956;-14.80482
 300.43;  367.200;  374.008;  563.872;-6.80825
 301.02;  374.535;  374.008;  566.602; 0.52765
 301.62;  361.855;  364.009;  559.899;-2.15399
 302.21;  373.828;  387.010;  541.202;-13.18224
 302.81;  373.790;  389.346;  549.215;-15.55558
 303.40;  385.778;  387.347;  547.898;-1.56842
 304.00;  366.137;  365.345;  579.230; 0.79187
 304.59;  368.466;  363.012;  576.791; 5.45426
 305.19;  346.502;  354.676;  638.069;-8.17410
 305.78;  343.245;  325.672;  628.737;17.57366
 306.38;  343.272;  334.003;  700.095; 9.26835
 306.97;  354.200;  339.675;  636.882;14.52551
 307.57;  361.411;  358.015;  641.667; 3.39521
 308.16;  361.016;  338.353;  554.395;22.66349
 308.76;  348.033;  334.352;  613.161;13.68104
 309.35;  336.694;  347.685;  657.024;-10.99119
 309.95;  330.317;  347.355;  646.550;-17.03741
 310.54;  340.016;  360.686;  585.385;-20.67027
 311.14;  343.148;  365.678;  624.848;-22.52991
 311.73;  343.878;  367.674;  660.173;-23.79605
 312.33;  350.808;  349.678;  695.023; 1.13034
 312.92;  362.486;  344.677;  621.319;17.80899
 313.52;  350.881;  335.340;  617.263;15.54092
 314.11;  358.170;  357.676;  589.429; 0.49363
 314.70;  357.824;  355.344;  611.774; 2.48058
 315.30;  380.551;  379.673;  628.336; 0.87725
 315.89;  374.591;  362.671;  581.064;11.92026
 316.49;  376.572;  370.672;  559.891; 5.89971
 317.08;  355.551;  368.340;  509.342;-12.78920
 317.68;  344.556;  369.673;  548.140;-25.11719
 318.27;  350.544;  370.674;  539.173;-20.12939
 318.86;  368.199;  371.008;  547.517;-2.80910
 319.46;  373.867;  379.675;  551.877;-5.80803
 320.05;  360.217;  373.007;  550.649;-12.79027
 320.65;  358.800;  374.345;  543.807;-15.54510
 321.24;  372.334;  379.020;  566.650;-6.68653
 321.83;  363.642;  373.355;  588.995;-9.71306
 322.43;  357.042;  361.684;  604.076;-4.64224
 323.02;  338.464;  351.012;  586.722;-12.54852
 323.62;  349.879;  351.007;  623.876;-1.12789
 324.21;  355.593;  352.671;  685.112; 2.92218
 324.80;  366.570;  369.006;  652.177;-2.43554
 325.40;  361.869;  377.674;  591.268;-15.80568
 325.99;  357.847;  399.009;  500.688;-41.16255
 326.59;  350.203;  373.008;  522.618;-22.80504
 327.18;  340.574;  364.672;  542.949;-24.09793
 327.77;  338.555;  349.340;  576.437;-10.78535
 328.37;  346.889;  369.673;  567.140;-22.78386
 328.96;  357.594;  373.671;  554.477;-16.07653
 329.55;  368.619;  376.669;  590.470;-8.04979
 330.15;  351.579;  365.338;  593.081;-13.75925
 330.74;  366.517;  369.009;  593.121;-2.49182
 331.34;  366.542;  367.341;  537.781;-0.79841
 331.93;  380.584;  373.338;  529.530; 7.24546
 332.52;  357.918;  352.671;  473.229; 5.24674
 333.12;  342.266;  350.337;  502.598;-8.07161
 333.71;  330.640;  336.668;  507.681;-6.02775
 334.30;  348.690;  347.332;  522.313; 1.35822
 334.90;  353.689;  332.998;  470.297;20.69091
 335.49;  357.635;  346.002;  454.887;11.63378
 336.08;  339.951;  350.669;  482.417;-10.71859
 336.68;  338.629;  355.669;  528.724;-17.03952
 337.27;  349.628;  359.002;  520.687;-9.37435
 337.86;  366.622;  372.002;  587.206;-5.38034
 338.46;  365.256;  366.004;  614.694;-0.74791
 339.05;  347.611;  355.003;  641.243;-7.39232
 339.64;  341.682;  347.999;  568.763;-6.31722
 340.24;  349.333;  357.666;  495.711;-8.33284
 340.83;  355.320;  351.667;  508.701; 3.65325
 341.42;  372.026;  356.665;  557.725;15.36143
 342.01;  375.728;  362.329;  622.972;13.39845
 342.61;  373.443;  374.660;  650.906;-1.21687
 343.20;  352.764;  361.660;  584.251;-8.89659
 343.79;  355.779;  373.993;  584.641;-18.21409
 344.39;  354.933;  361.983;  564.008;-7.05061
 344.98;  367.271;  372.650;  609.130;-5.37902
 345.57;  360.188;  355.655;  578.965; 4.53325
 346.16;  365.908;  363.651;  597.354; 2.25619
 346.76;  346.268;  351.316;  578.061;-5.04847
 347.35;  338.927;  342.650;  570.194;-3.72327
 347.94;  348.239;  340.652;  505.962; 7.58717
 348.54;  347.196;  353.321;  514.843;-6.12486
 349.13;  340.204;  369.987;  512.382;-29.78318
 349.72;  333.261;  364.650;  533.220;-31.38887
 350.31;  334.949;  358.982;  523.780;-24.03285
 350.91;  340.911;  344.651;  557.438;-3.74039
 351.50;  332.904;  343.652;  561.592;-10.74766
 352.09;  338.278;  339.316;  543.320;-1.03799
 352.68;  339.293;  338.648;  492.716; 0.64473
 353.28;  334.936;  330.316;  465.098; 4.61969
 353.87;  329.905;  321.318;  460.957; 8.58695
 354.46;  337.904;  337.985;  486.597;-0.08078
 355.05;  329.316;  337.313;  512.323;-7.99733
 355.65;  337.012;  339.645;  563.755;-2.63298
 356.24;  326.306;  336.981;  595.070;-10.67427
 356.83;  348.982;  353.647;  613.630;-4.66507
 357.42;  354.996;  351.979;  613.344; 3.01700
 358.01;  364.745;  352.308;  618.164;12.43764
 358.61;  356.811;  342.303;  598.563;14.50782
 359.20;  354.757;  352.973;  594.799; 1.78316
 359.79;  339.392;  351.309;  572.324;-11.91624
 360.38;  339.738;  365.641;  592.318;-25.90297
 360.97;  330.111;  359.639;  582.686;-29.52770
 361.57;  334.821;  352.636;  537.816;-17.81525
 362.16;  327.152;  340.636;  495.435;-13.48384
 362.75;  336.811;  342.637;  458.891;-5.82573
 363.34;  338.793;  342.305;  486.416;-3.51165
 363.93;  349.021;  356.644;  496.993;-7.62335
 364.53;  341.887;  353.653;  553.148;-11.76564
 365.12;  344.176;  362.322;  546.648;-18.14626
 365.71;  357.178;  367.989;  566.378;-10.81036
 366.30;  372.840;  379.989;  594.236;-7.14947
 366.89;  373.804;  373.324;  635.973; 0.47954
 367.48;  357.483;  347.990;  658.957; 9.49238
 368.08;  353.252;  336.984;  626.300;16.26753
 368.67;  351.950;  324.982;  702.457;26.96757
 369.26;  354.643;  320.314;  710.477;34.32872
 369.85;  347.434;  318.973;  710.422;28.46160
 370.44;  351.119;  323.638;  603.559;27.48064
 371.03;  352.711;  353.976;  614.611;-1.26498
 371.62;  344.680;  349.978;  626.803;-5.29772
 372.22;  348.621;  358.982;  678.235;-10.36126
 372.81;  340.911;  333.651;  641.433; 7.25940
 373.40;  340.616;  334.649;  596.791; 5.96757
 373.99;  329.679;  325.978;  547.433; 3.70079
 374.58;  354.983;  351.980;  558.990; 3.00267
 375.17;  370.193;  379.654;  581.108;-9.46098
 375.76;  384.891;  396.986;  628.910;-12.09512
 376.35;  378.375;  385.643;  629.537;-7.26797
 376.95;  385.043;  367.976;  624.574;17.06686
 377.54;  378.293;  354.982;  629.716;23.31139
 378.13;  379.265;  350.650;  624.971;28.61456
 378.72;  358.624;  347.982;  619.981;10.64194
 379.31;  356.709;  358.976;  561.209;-2.26776
 379.90;  342.786;  360.972;  573.898;-18.18581
 380.49;  351.441;  377.306;  583.269;-25.86446
 381.08;  354.744;  370.974;  596.466;-16.23032
 381.67;  355.068;  376.308;  627.567;-21.23973
 382.26;  340.059;  336.975;  681.314; 3.08333
 382.86;  341.746;  323.307;  764.529;18.43892
 383.45;  348.711;  318.643;  763.605;30.06814
 384.04;  370.274;  341.649;  759.220;28.62461
 384.63;  368.269;  362.983;  738.749; 5.28572
 385.22;  361.311;  370.647;  733.535;-9.33559
 385.81;  361.991;  381.646;  689.862;-19.65566
 386.40;  365.680;  369.312;  660.448;-3.63191
 386.99;  363.984;  354.980;  633.678; 9.00352
 387.58;  376.221;  356.986;  683.842;19.23543
 388.17;  363.858;  372.321;  706.055;-8.46311
 388.76;  373.547;  378.320;  789.318;-4.77227
 389.35;  357.563;  367.652;  790.714;-10.08956
 389.94;  363.578;  356.318;  853.438; 7.25961
 390.53;  370.125;  361.992;  859.984; 8.13316
 391.12;  376.205;  359.008;  843.358;17.19796
 391.71;  374.033;  348.685;  852.167;25.34792
 392.30;  366.649;  340.021;  888.519;26.62797
 392.89;  343.445;  340.367;  999.176; 3.07810
 393.48;  352.395;  353.391; 1049.133;-0.99554
 394.07;  350.665;  362.082; 1151.732;-11.41706
 394.66;  365.170;  368.113; 1207.426;-2.94278
 395.25;  365.586;  371.815; 1243.792;-6.22953
 395.84;  358.600;  366.522; 1222.029;-7.92237
 396.43;  357.151;  352.571; 1242.194; 4.58012
 397.02;  338.993;  346.955; 1320.928;-7.96189
 397.61;  345.769;  352.010; 1445.247;-6.24140
 398.20;  348.782;  368.404; 1533.069;-19.62212
 398.79;  350.965;  365.121; 1673.336;-14.15600
 399.38;  348.023;  358.159; 1642.386;-10.13574
 399.97;  336.156;  352.859; 1652.738;-16.70233
 400.56;  350.815;  356.546; 1565.794;-5.73146
 401.15;  347.453;  356.215; 1621.388;-8.76142
 401.74;  362.356;  366.533; 1652.238;-4.17753
 402.33;  357.857;  367.169; 1687.691;-9.31248
 402.92;  364.370;  368.450; 1639.195;-4.08069
 403.51;  357.614;  358.727; 1536.060;-1.11354
 404.10;  345.994;  355.683; 1432.427;-9.68900
 404.69;  346.533;  359.983; 1456.218;-13.44996
 405.28;  348.836;  358.965; 1608.804;-10.12900
 405.87;  357.626;  358.957; 1820.707;-1.33117
 406.46;  347.663;  356.288; 2061.684;-8.62492
 407.05;  338.904;  349.627; 2251.261;-10.72314
 407.64;  342.739;  349.304; 2458.270;-6.56504
 408.23;  351.640;  341.977; 2717.349; 9.66345
 408.82;  374.670;  361.308; 3007.797;13.36178
 409.41;  373.825;  359.965; 3269.186;13.85944
 410.00;  372.909;  373.960; 3478.054;-1.05133
 410.59;  342.226;  339.628; 3684.621; 2.59779
 411.18;  349.567;  332.627; 3931.176;16.94011
 411.76;  350.507;  332.298; 4160.915;18.20882
 412.35;  365.177;  344.964; 4423.026;20.21332
 412.94;  357.962;  341.957; 4701.438;16.00473
 413.53;  357.355;  352.286; 5061.349; 5.06870
 414.12;  344.505;  352.944; 5402.616;-8.43856
 414.71;  349.339;  369.267; 5665.316;-19.92827
 415.30;  339.338;  354.934; 5692.290;-15.59601
 415.89;  339.648;  349.268; 5772.693;-9.62018
 416.48;  343.290;  349.937; 6084.377;-6.64650
 417.07;  365.957;  362.270; 6697.705; 3.68662
 417.65;  381.049;  371.931; 7487.800; 9.11838
 418.24;  382.147;  371.925; 8240.699;10.22237
 418.83;  371.186;  372.256; 9129.396;-1.06924
 419.42;  362.536;  378.588; 9928.818;-16.05213
 420.01;  375.940;  374.917;10492.672; 1.02298
 420.60;  378.016;  367.246;10833.323;10.77010
 421.19;  382.348;  358.579;10872.286;23.76860
 421.78;  363.341;  357.913;10857.102; 5.42778
 422.36;  359.011;  356.246;10585.868; 2.76518
 422.95;  360.326;  366.914;10226.378;-6.58806
 423.54;  357.370;  361.244; 9866.872;-3.87432
 424.13;  363.776;  372.907; 9831.117;-9.13019
 424.72;  361.177;  359.236;10040.209; 1.94106
 425.31;  371.956;  366.229;10487.493; 5.72733
 425.89;  367.998;  346.893;10801.597;21.10539
 426.48;  366.270;  355.563;11180.976;10.70637
 427.07;  355.167;  352.903;11321.627; 2.26434
 427.66;  343.137;  351.572;11580.502;-8.43443
 428.25;  343.257;  346.231;11632.972;-2.97400
 428.84;  346.699;  357.891;11869.479;-11.19221
 429.42;  344.402;  360.889;11986.429;-16.48703
 430.01;  354.423;  376.221;12271.999;-21.79726
 430.60;  345.806;  364.217;12745.959;-18.41150
 431.19;  367.883;  364.879;13157.305; 3.00336
 431.78;  348.291;  369.541;13415.591;-21.25081
 432.36;  360.042;  370.870;13649.819;-10.82718
 432.95;  347.737;  366.534;13693.553;-18.79744
 433.54;  361.356;  356.537;13995.969; 4.81852
 434.13;  352.974;  362.207;14236.707;-9.23262
 434.72;  361.982;  375.207;14658.574;-13.22449
 435.30;  357.022;  363.204;14802.958;-6.18191
 435.89;  354.029;  359.870;14737.794;-5.84173
 436.48;  356.043;  342.870;14635.158;13.17303
 437.07;  355.460;  338.198;14684.370;17.26269
 437.66;  360.894;  336.525;14771.322;24.36882
 438.24;  359.274;  348.522;15239.553;10.75200
 438.83;  368.308;  370.853;16026.455;-2.54474
 439.42;  379.327;  381.185;16791.285;-1.85796
 440.01;  377.636;  386.853;17315.635;-9.21761
 440.59;  378.959;  382.187;17733.367;-3.22852
 441.18;  369.326;  373.519;18366.570;-4.19322
 441.77;  371.725;  370.515;18803.959; 1.20987
 442.36;  360.076;  368.847;18959.434;-8.77087
 442.94;  354.101;  358.845;18972.432;-4.74391
 443.53;  335.541;  344.505;19282.225;-8.96406
 444.12;  346.574;  345.503;19517.742; 1.07039
 444.70;  335.521;  349.507;19852.348;-13.98610
 445.29;  352.534;  352.173;20121.357; 0.36114
 445.88;  340.327;  348.498;20351.008;-8.17115
 446.47;  371.762;  372.492;20660.340;-0.72976
 447.05;  352.431;  376.158;20757.076;-23.72698
 447.64;  363.755;  374.159;21129.494;-10.40370
 448.23;  343.103;  349.491;21318.197;-6.38872
 448.81;  353.093;  350.492;21507.949; 2.60122
 449.40;  358.109;  358.491;21533.689;-0.38231
 449.99;  358.560;  365.817;21452.439;-7.25735
 450.58;  371.644;  372.812;21303.635;-1.16833
 451.16;  367.299;  368.479;21007.350;-1.17989
 451.75;  380.303;  364.146;20387.789;16.15772
 452.34;  384.635;  359.479;19283.070;25.15558
 452.92;  375.945;  363.147;18575.791;12.79743
 453.51;  361.001;  358.144;18303.926; 2.85691
 454.10;  351.719;  353.141;19504.605;-1.42186
 454.68;  365.729;  346.473;21374.863;19.25529
 455.27;  363.444;  349.470;23727.146;13.97395
 455.86;  367.842;  365.466;25853.498; 2.37554
 456.44;  359.561;  376.130;27134.875;-16.56861
 457.03;  361.584;  383.462;28378.473;-21.87776
 457.62;  345.921;  362.795;29030.244;-16.87348
 458.20;  358.914;  355.128;29952.377; 3.78505
 458.79;  370.933;  351.127;30731.211;19.80538
 459.38;  381.312;  351.124;31260.420;30.18771
 459.96;  383.670;  356.123;31659.721;27.54672
 460.55;  386.012;  355.122;31350.281;30.88925
 461.13;  375.350;  363.789;31304.758;11.56170
 461.72;  352.723;  356.453;29316.449;-3.73013
 462.31;  337.771;  349.117;26202.383;-11.34544
 462.89;  348.781;  335.783;23397.313;12.99859
 463.48;  347.123;  330.449;23416.520;16.67360
 464.07;  354.449;  336.116;27205.678;18.33321
 464.65;  351.773;  347.117;31256.092; 4.65627
 465.24;  355.805;  351.448;34859.258; 4.35675
 465.82;  370.234;  365.442;36380.438; 4.79193
 466.41;  376.314;  376.104;36801.539; 0.21042
 467.00;  369.264;  373.774;37561.559;-4.50952
 467.58;  347.881;  358.110;38486.254;-10.22904
 468.17;  335.929;  354.774;39907.840;-18.84500
 468.75;  342.329;  359.103;39725.602;-16.77353
 469.34;  346.059;  359.099;39650.594;-13.03968
 469.93;  342.459;  359.428;39763.660;-16.96949
 470.51;  343.168;  346.759;40404.449;-3.59058
 471.10;  331.826;  346.426;40543.223;-14.59979
 471.68;  331.144;  345.760;40914.820;-14.61605
 472.27;  348.464;  361.095;41746.125;-12.63081
 472.85;  371.739;  379.765;43613.613;-8.02534
 473.44;  392.076;  386.098;43899.688; 5.97766
 474.02;  366.473;  369.427;43918.367;-2.95430
 474.61;  364.797;  362.428;42942.133; 2.36962
 475.20;  352.105;  351.429;43049.785; 0.67535
 475.78;  375.137;  365.427;43856.305; 9.70980
 476.37;  369.585;  350.087;44235.629;19.49778
 476.95;  371.999;  355.082;44853.090;16.91735
 477.54;  344.952;  343.418;43987.848; 1.53352
 478.12;  327.996;  335.082;42879.680;-7.08586
 478.71;  327.763;  318.076;40127.625; 9.68672
 479.29;  348.392;  336.412;34895.656;11.98068
 479.88;  366.064;  350.411;28312.775;15.65227
 480.46;  359.093;  353.410;21642.219; 5.68372
 481.05;  357.009;  347.415;18615.340; 9.59407
 481.63;  378.976;  364.083;19267.822;14.89296
 482.22;  376.027;  368.414;21653.139; 7.61290
 482.80;  381.049;  371.412;22634.057; 9.63665
 483.39;  362.086;  351.077;20378.689;11.00914
 483.97;  389.817;  360.073;17265.385;29.74449
 484.56;  382.834;  361.072;16005.162;21.76247
 485.14;  375.523;  371.737;18734.410; 3.78600
 485.73;  360.919;  368.066;24842.707;-7.14788
 486.31;  356.626;  353.731;31765.785; 2.89577
 486.90;  355.638;  353.730;36774.754; 1.90796
 487.48;  349.976;  354.063;40038.555;-4.08647
 488.07;  355.611;  364.065;40908.707;-8.45425
 488.65;  366.191;  374.737;41093.117;-8.54562
 489.24;  369.527;  371.070;40536.188;-1.54284
 489.82;  369.261;  369.066;40845.617; 0.19529
 490.41;  357.241;  346.067;40696.082;11.17368
 490.99;  362.569;  354.401;40560.957; 8.16855
 491.57;  352.631;  362.397;39689.895;-9.76641
 492.16;  370.311;  378.396;38863.254;-8.08519
 492.74;  368.317;  368.729;37093.090;-0.41167
 493.33;  373.043;  353.392;35499.297;19.65080
 493.91;  349.124;  343.054;34302.414; 6.06994
 494.50;  337.492;  337.718;34447.000;-0.22616
 495.08;  344.800;  353.053;34995.012;-8.25270
 495.66;  354.468;  362.053;35446.023;-7.58560
 496.25;  354.159;  369.718;35553.012;-15.55907
 496.83;  350.840;  363.051;35105.047;-12.21076
 497.42;  347.500;  353.718;34145.863;-6.21825
 498.00;  349.153;  344.052;30990.510; 5.10075
 498.59;  340.864;  338.716;27881.338; 2.14782
 499.17;  344.221;  356.048;25932.627;-11.82693
 499.75;  345.146;  360.052;26732.012;-14.90588
 500.34;  342.104;  358.055;29101.898;-15.95103
 500.92;  340.813;  347.719;31684.012;-6.90588
 501.50;  340.565;  358.380;33037.586;-17.81516
 502.09;  348.324;  360.375;32748.008;-12.05028
 502.67;  356.331;  355.041;32314.859; 1.29054
 503.26;  365.633;  362.710;31856.357; 2.92340
 503.84;  361.017;  360.706;31605.684; 0.31044
 504.42;  340.713;  357.371;31028.111;-16.65875
 505.01;  336.333;  347.041;30621.568;-10.70775
 505.59;  342.351;  349.706;30282.043;-7.35515
 506.17;  346.460;  351.700;29746.217;-5.24004
 506.76;  345.536;  350.028;29394.207;-4.49271
 507.34;  339.194;  345.696;28333.986;-6.50169
 507.93;  352.499;  341.697;27491.924;10.80211
 508.51;  344.807;  332.366;26699.242;12.44118
 509.09;  354.123;  326.700;27050.123;27.42278
 509.68;  354.138;  328.699;26609.514;25.43861
 510.26;  354.478;  330.365;26180.375;24.11319
 510.84;  343.816;  336.365;25423.809; 7.45059
 511.43;  340.847;  339.030;25319.309; 1.81773
 512.01;  339.517;  352.363;24857.711;-12.84615
 512.59;  336.848;  357.363;24543.992;-20.51496
 513.17;  349.537;  355.362;23994.588;-5.82411
 513.76;  352.885;  359.027;23974.619;-6.14268
 514.34;  378.874;  349.695;23284.340;29.17931
 514.92;  351.539;  339.028;22755.975;12.51136
 515.51;  356.899;  330.026;21954.338;26.87294
 516.09;  340.595;  335.025;21834.109; 5.57084
 516.67;  360.956;  348.356;21512.150;12.59952
 517.26;  349.237;  333.026;21235.783;16.21076
 517.84;  358.221;  345.027;20603.709;13.19429
 518.42;  355.665;  349.687;19790.586; 5.97757
 519.00;  371.414;  365.682;19174.428; 5.73239
 519.59;  370.061;  363.016;18955.912; 7.04475
 520.17;  363.010;  360.686;19085.236; 2.32374
 520.75;  343.024;  340.019;19072.262; 3.00496
 521.33;  342.344;  337.686;18935.258; 4.65793
 521.92;  328.632;  318.356;18657.408;10.27667
 522.50;  337.977;  327.022;18118.037;10.95532
 523.08;  329.363;  313.352;17652.744;16.01095
 523.67;  336.074;  319.682;17253.910;16.39157
 524.25;  323.730;  328.350;17114.637;-4.61956
 524.83;  330.714;  340.684;16978.557;-9.96958
 525.41;  340.063;  357.683;16857.287;-17.62020
 525.99;  353.080;  362.349;16534.402;-9.26868
 526.58;  329.770;  354.014;16161.015;-24.24386
 527.16;  333.130;  351.012;15988.717;-17.88207
 527.74;  347.760;  347.681;16079.407; 0.07835
 528.32;  360.401;  359.683;15941.424; 0.71870
 528.91;  341.447;  358.013;15718.278;-16.56649
 529.49;  325.820;  360.677;15369.657;-34.85746
 530.07;  320.841;  353.676;15279.545;-32.83499
 530.65;  334.876;  358.007;15155.803;-23.13088
 531.23;  343.288;  356.002;15213.856;-12.71432
 531.82;  364.642;  366.001;15197.066;-1.35894
 532.40;  367.577;  356.672;15188.351;10.90485
 532.98;  360.514;  348.342;15224.042;12.17164
 533.56;  360.159;  342.344;15245.149;17.81562
 534.14;  371.493;  350.010;15379.826;21.48272
 534.73;  364.166;  351.677;15097.995;12.48957
 535.31;  377.507;  366.343;14906.519;11.16394
 535.89;  360.187;  370.342;14736.878;-10.15485
 536.47;  390.564;  392.673;14854.690;-2.10842
 537.05;  366.266;  383.337;14859.609;-17.07119
 537.63;  371.926;  366.004;14695.773; 5.92197
 538.22;  350.558;  345.340;14530.521; 5.21807
 538.80;  352.604;  338.670;14644.074;13.93416
 539.38;  363.021;  349.332;14859.938;13.68984
 539.96;  370.348;  357.999;15197.080;12.34881
 540.54;  375.279;  368.670;15287.608; 6.60896
 541.12;  375.249;  369.005;15435.510; 6.24460
 541.70;  376.970;  369.668;15552.924; 7.30195
 542.29;  369.311;  366.334;15589.797; 2.97696
 542.87;  364.974;  365.335;15699.024;-0.36065
 543.45;  350.053;  359.996;15707.428;-9.94345
 544.03;  370.747;  365.995;15995.807; 4.75211
 544.61;  375.641;  359.668;16366.374;15.97332
 545.19;  387.924;  369.338;16542.043;18.58607
 545.77;  381.328;  369.667;16639.891;11.66096
 546.35;  385.676;  372.332;16273.276;13.34324
 546.93;  374.677;  367.999;16238.324; 6.67850
 547.52;  373.048;  361.330;16090.645;11.71851
 548.10;  375.376;  369.997;16191.164; 5.37919
 548.68;  389.398;  368.996;15957.744;20.40273
 549.26;  379.750;  360.994;15984.902;18.75596
 549.84;  362.068;  364.995;16093.501;-2.92697
 550.42;  369.070;  380.995;16409.221;-11.92483
 551.00;  378.081;  384.661;16647.156;-6.58058
 551.58;  379.126;  379.325;16821.334;-0.19954
 552.16;  372.460;  376.658;16883.355;-4.19868
 552.74;  374.421;  376.661;16925.342;-2.23976
 553.32;  378.109;  369.993;16770.572; 8.11647
 553.90;  377.836;  369.656;17015.807; 8.18002
 554.48;  361.529;  362.988;17097.838;-1.45841
 555.06;  352.130;  371.658;17281.768;-19.52880
 555.64;  351.745;  365.661;17447.754;-13.91670
 556.23;  362.478;  364.991;17399.174;-2.51233
 556.81;  368.173;  358.322;17843.580; 9.85096
 557.39;  375.451;  360.326;17828.799;15.12567
 557.97;  351.409;  351.995;18476.348;-0.58636
 558.55;  356.099;  346.327;18259.309; 9.77243
 559.13;  356.194;  343.988;18293.451;12.20612
 559.71;  381.538;  359.987;18162.398;21.55079
 560.29;  392.481;  379.657;18686.904;12.82357
 560.87;  385.832;  368.323;18896.373;17.50928
 561.45;  375.550;  366.986;18886.053; 8.56385
 562.03;  365.581;  360.318;18931.523; 5.26304
 562.61;  364.882;  370.320;19347.678;-5.43787
 563.19;  380.499;  387.989;19461.389;-7.49007
 563.77;  369.168;  382.989;19509.787;-13.82084
 564.35;  371.154;  372.323;19591.422;-1.16894
 564.93;  369.499;  356.323;19940.717;13.17638
 565.51;  376.525;  367.988;20134.055; 8.53689
 566.09;  373.156;  375.990;20008.803;-2.83368
 566.67;  365.434;  382.327;19981.674;-16.89295
 567.25;  372.432;  374.327;20013.965;-1.89466
 567.83;  366.167;  369.656;20329.406;-3.48943
 568.40;  373.564;  369.319;20360.740; 4.24485
 568.98;  368.615;  369.982;20598.414;-1.36747
 569.56;  376.275;  374.649;20803.584; 1.62590
 570.14;  367.863;  369.321;21071.520;-1.45777
 570.72;  357.158;  358.990;20942.850;-1.83175
 571.30;  364.802;  363.991;21045.576; 0.81031
 571.88;  364.106;  357.660;21379.145; 6.44595
 572.46;  373.483;  355.324;21797.635;18.15947
 573.04;  347.904;  346.652;22060.258; 1.25234
 573.62;  338.569;  343.652;22343.561;-5.08228
 574.20;  328.826;  346.323;22469.877;-17.49735
 574.78;  343.864;  340.654;22453.541; 3.20976
 575.36;  352.600;  340.650;22413.352;11.94982
 575.94;  360.583;  349.651;22510.904;10.93163
 576.52;  348.552;  340.653;22583.090; 7.89868
 577.09;  365.857;  353.321;22620.689;12.53560
 577.67;  354.516;  338.988;22729.834;15.52790
 578.25;  362.862;  346.988;23019.832;15.87471
 578.83;  353.546;  340.320;23063.947;13.22623
 579.41;  369.495;  355.990;23036.623;13.50586
 579.99;  368.790;  356.992;23411.938;11.79790
 580.57;  365.184;  353.655;24218.854;11.52875
 581.15;  356.201;  348.987;24733.980; 7.21404
 581.73;  370.158;  365.657;25161.506; 4.50115
 582.30;  366.132;  366.992;24936.492;-0.85978
 582.88;  373.822;  374.657;25087.432;-0.83518
 583.46;  358.169;  371.656;24728.479;-13.48644
 584.04;  340.156;  366.657;24836.787;-26.50099
 584.62;  336.541;  361.653;25114.492;-25.11202
 585.20;  339.248;  356.984;24897.211;-17.73611
 585.78;  359.842;  355.322;24650.293; 4.51955
 586.35;  365.778;  351.326;24800.297;14.45215
 586.93;  365.502;  338.323;25198.115;27.17895
 587.51;  361.582;  344.651;25108.564;16.93141
 588.09;  364.925;  345.650;24424.803;19.27438
 588.67;  363.930;  353.317;24371.945;10.61349
 589.25;  357.613;  355.982;24598.695; 1.63039
 589.82;  340.920;  355.317;24873.686;-14.39700
 590.40;  344.170;  349.989;24729.484;-5.81956
 590.98;  348.426;  346.994;24134.129; 1.43183
 591.56;  352.408;  332.995;22998.320;19.41257
 592.14;  347.724;  340.996;21901.215; 6.72814
 592.71;  350.708;  337.330;20554.783;13.37726
 593.29;  344.364;  340.664;19749.514; 3.69968
 593.87;  334.690;  336.332;18991.313;-1.64178
 594.45;  324.003;  333.999;19764.445;-9.99672
 595.03;  332.995;  342.667;20683.240;-9.67174
 595.60;  343.691;  335.665;21527.021; 8.02660
 596.18;  348.034;  330.664;21696.588;17.36935
 596.76;  348.654;  343.000;21115.711; 5.65368
 597.34;  347.232;  344.339;21024.051; 2.89265
 597.91;  335.531;  350.675;21255.480;-15.14393
 598.49;  328.878;  326.674;21894.178; 2.20416
 599.07;  329.916;  322.338;21915.176; 7.57794
 599.65;  368.317;  330.667;21701.617;37.64983
 600.22;  378.330;  338.000;21567.965;40.33062
 600.80;  379.645;  338.334;21845.813;41.31093
 601.38;  354.301;  337.002;22027.539;17.29981
 601.96;  339.315;  348.001;22191.887;-8.68607
 602.53;  327.353;  344.332;21996.551;-16.97896
 603.11;  328.349;  329.999;21613.445;-1.64991
 603.69;  330.292;  313.002;21846.945;17.28932
 604.27;  341.605;  325.003;22310.084;16.60126
 604.84;  342.979;  329.001;22756.484;13.97781
 605.42;  340.968;  333.002;22740.861; 7.96605
 606.00;  327.901;  331.672;22404.770;-3.77187
 606.57;  316.197;  328.008;22235.814;-11.81060
 607.15;  316.499;  339.343;22064.652;-22.84419
 607.73;  332.487;  338.011;21902.334;-5.52370
 608.31;  354.189;  350.675;21672.254; 3.51353
 608.88;  353.191;  339.342;21616.656;13.84965
 609.46;  353.503;  333.676;21515.418;19.82654
 610.04;  348.148;  323.344;21999.854;24.80364
 610.61;  351.436;  324.681;21956.322;26.75507
 611.19;  336.060;  329.683;21975.203; 6.37638
 611.77;  332.373;  342.018;21768.008;-9.64502
 612.34;  337.747;  342.015;21688.090;-4.26782
 612.92;  361.120;  353.346;21559.453; 7.77390
 613.50;  356.783;  350.680;20826.363; 6.10360
 614.07;  346.469;  347.679;20818.859;-1.20962
 614.65;  332.154;  336.011;21232.002;-3.85703
 615.23;  345.532;  344.675;21795.168; 0.85692
 615.80;  348.545;  344.340;21864.527; 4.20480
 616.38;  352.165;  346.343;21410.969; 5.82183
 616.96;  339.466;  336.012;21432.107; 3.45362
 617.53;  339.075;  337.682;21578.266; 1.39242
 618.11;  337.674;  340.020;21749.506;-2.34549
 618.68;  344.032;  341.352;21698.156; 2.68082
 619.26;  339.057;  348.350;21465.461;-9.29329
 619.84;  335.347;  350.353;21049.322;-15.00617
 620.41;  344.400;  345.016;20707.064;-0.61571
 620.99;  359.810;  341.345;20494.076;18.46582
 621.56;  368.455;  332.013;21003.506;36.44271
 622.14;  358.738;  347.683;21727.498;11.05503
 622.72;  356.351;  354.686;22017.432; 1.66499
 623.29;  352.650;  364.688;21627.867;-12.03805
 623.87;  358.993;  357.354;20867.465; 1.63931
 624.44;  359.352;  356.686;20730.459; 2.66606
 625.02;  344.002;  359.353;20761.359;-15.35149
 625.60;  326.636;  349.022;20594.164;-22.38636
 626.17;  309.318;  331.355;20356.238;-22.03655
 626.75;  327.659;  318.354;20108.777; 9.30512
 627.32;  331.282;  334.023;20397.299;-2.74131
 627.90;  341.572;  352.026;20189.836;-10.45376
 628.47;  346.246;  370.026;20505.691;-23.77939
 629.05;  352.966;  365.022;20355.408;-12.05667
 629.63;  370.955;  370.690;20163.123; 0.26511
 630.20;  384.230;  372.027;19884.926;12.20306
 630.78;  386.580;  375.692;19751.375;10.88791
 631.35;  381.627;  372.023;19873.277; 9.60465
 631.93;  352.332;  354.020;19749.941;-1.68824
 632.50;  351.329;  354.354;19674.529;-3.02479
 633.08;  341.227;  346.360;19411.535;-5.13263
 633.65;  365.468;  357.699;19680.762; 7.76852
 634.23;  375.131;  355.699;19964.344;19.43176
 634.80;  385.166;  362.031;20360.246;23.13502
 635.38;  373.488;  357.365;20356.973;16.12389
 635.95;  376.441;  362.034;20301.059;14.40673
 636.53;  373.104;  349.701;19753.631;23.40288
 637.10;  379.092;  351.368;19100.980;27.72337
 637.68;  369.373;  352.038;18895.607;17.33441
 638.25;  377.048;  352.371;19187.492;24.67651
 638.83;  368.790;  346.700;19372.133;22.08987
 639.40;  351.839;  333.697;19560.426;18.14229
 639.98;  362.133;  359.033;19328.059; 3.10036
 640.55;  373.208;  370.028;19233.361; 3.18021
 641.13;  387.547;  370.361;19050.844;17.18623
 641.70;  357.220;  349.027;19352.992; 8.19225
 642.28;  345.559;  346.027;19873.475;-0.46839
 642.85;  352.898;  350.693;20042.623; 2.20429
 643.42;  365.237;  365.360;20040.438;-0.12302
 644.00;  354.242;  358.026;19687.920;-3.78366
 644.57;  338.248;  340.026;19310.402;-1.77764
 645.15;  339.587;  336.025;19125.217; 3.56171
 645.72;  349.259;  335.025;19133.699;14.23440
 646.30;  351.598;  357.691;19139.848;-6.09292
 646.87;  342.937;  344.024;19119.662;-1.08690
 647.45;  348.276;  358.357;19167.811;-10.08088
 648.02;  352.949;  347.690;18860.627; 5.25848
 648.59;  352.288;  351.690;18576.441; 0.59783
 649.17;  365.627;  357.689;18128.258; 7.93719
 649.74;  372.632;  372.689;18143.738;-0.05679
 650.32;  381.971;  368.689;18329.221;13.28256
 650.89;  380.310;  364.688;18665.703;15.62191
 651.46;  375.983;  359.355;18714.184;16.62793
 652.04;  373.322;  369.688;18304.000; 3.63396
 652.61;  352.661;  365.354;17791.814;-12.69336
 653.19;  360.666;  357.354;17440.631; 3.31266
 653.76;  358.005;  350.020;17384.445; 7.98535
 654.33;  372.678;  342.020;17307.260;30.65804
 654.91;  365.350;  356.686;17447.742; 8.66406
 655.48;  381.689;  369.686;17438.891;12.00341
 656.05;  374.361;  368.352;17402.039; 6.00943
 656.63;  358.367;  352.018;17323.188; 6.34879
 657.20;  351.039;  344.018;17805.336; 7.02147
 657.78;  350.712;  344.017;18052.484; 6.69416
 658.35;  364.051;  349.684;17933.635;14.36685
 658.92;  369.056;  339.683;17492.115;29.37287
 659.50;  369.729;  342.683;17315.932;27.04555
 660.07;  386.068;  353.349;17411.746;32.71824
 660.64;  389.740;  369.349;17495.895;20.39093
 661.22;  404.412;  391.682;17763.377;12.73028
 661.79;  389.751;  378.015;17818.525;11.73630
 662.36;  380.757;  366.348;17750.674;14.40899
 662.93;  361.429;  341.014;17561.156;20.41501
 663.51;  358.435;  341.681;17502.637;16.75436
 664.08;  355.774;  348.014;17357.785; 7.76038
 664.65;  366.446;  355.680;17574.268;10.76641
 665.23;  362.119;  350.680;17875.750;11.43909
 665.80;  383.791;  370.679;18026.232;13.11178
 666.37;  386.463;  377.012;17798.381; 9.45113
 666.95;  401.802;  395.345;17671.529; 6.45715
 667.52;  371.808;  372.678;17967.344;-0.87016
 668.09;  358.147;  351.011;18220.826; 7.13586
 668.66;  337.486;  331.011;18371.975; 6.47522
 669.24;  350.158;  339.344;18506.789;10.81457
 669.81;  344.497;  341.677;18504.605; 2.82059
 670.38;  356.170;  345.676;18224.088;10.49328
 670.95;  354.842;  347.009;17919.568; 7.83263
 671.53;  352.514;  343.676;17783.385; 8.83865
 672.10;  347.520;  350.675;17679.533;-3.15533
 672.67;  341.859;  341.008;17345.682; 0.85069
 673.24;  362.531;  355.008;17072.162; 7.52338
 673.82;  371.204;  359.008;17258.645;12.19607
 674.39;  364.876;  358.007;17276.127; 6.86875
 674.96;  367.548;  358.340;17400.275; 9.20811
 675.53;  357.554;  358.007;17045.424;-0.45254
 676.11;  369.226;  361.006;17513.238; 8.22015
 676.68;  352.899;  362.339;17636.389;-9.44050
 677.25;  350.904;  356.672;17780.537;-5.76781
 677.82;  336.910;  361.672;17371.352;-24.76179
 678.39;  348.582;  362.672;17075.500;-14.08910
 678.97;  347.255;  358.004;17573.982;-10.74975
 679.54;  351.594;  350.004;17766.465; 1.58960
 680.11;  344.599;  347.337;18129.945;-2.73771
 680.68;  344.272;  346.670;18228.762;-2.39835
 681.25;  346.944;  347.670;18222.242;-0.72567
 681.83;  341.616;  353.336;18152.059;-11.71965
 682.40;  347.622;  344.669;18205.207; 2.95304
 682.97;  349.294;  347.335;18828.355; 1.95906
 683.54;  352.633;  337.668;19138.504;14.96508
 684.11;  361.972;  352.668;19009.318; 9.30443
 684.68;  355.311;  349.001;18950.135; 6.31046
 685.26;  353.650;  348.001;19255.615; 5.64981
 685.83;  341.989;  345.334;19024.432;-3.34417
 686.40;  341.662;  342.333;18503.580;-0.67148
 686.97;  341.667;  338.333;18161.729; 3.33454
 687.54;  333.006;  325.999;18796.211; 7.00722
 688.11;  337.012;  331.666;19077.025; 5.34658
 688.68;  329.018;  326.999;19084.174; 2.01927
 689.26;  333.357;  339.998;18793.990;-6.64138
 689.83;  334.696;  339.331;18897.139;-4.63536
 690.40;  343.701;  349.997;18671.619;-6.29601
 690.97;  351.040;  344.997;18758.102; 6.04335
 691.54;  363.713;  353.997;18933.250; 9.71603
 692.11;  365.385;  346.330;19164.398;19.05539
 692.68;  380.724;  359.329;18903.881;21.39474
 693.25;  377.730;  357.996;18559.695;19.73410
 693.82;  368.736;  348.995;18518.178;19.74012
 694.40;  343.075;  335.995;18257.326; 7.07947
 694.97;  332.080;  318.661;18401.143;13.41882
 695.54;  319.086;  319.661;18982.291;-0.57516
 696.11;  327.758;  323.661;20150.105; 4.09753
 696.68;  325.764;  317.327;20755.920; 8.43689
 697.25;  338.770;  321.660;20463.736;17.10957
 697.82;  341.775;  313.660;19927.217;28.11559
 698.39;  340.114;  311.326;19726.699;28.78828
 698.96;  348.453;  331.326;20105.182;17.12763
 699.53;  331.459;  325.659;19727.330; 5.80032
 700.10;  339.131;  346.658;19281.813;-7.52699
 700.67;  328.137;  330.658;18632.961;-2.52097
 701.24;  345.476;  341.991;18978.109; 3.48505
 701.81;  339.815;  329.324;19136.924;10.49107
 702.38;  351.821;  330.990;19660.072;20.83042
 702.95;  353.493;  334.323;19786.889;19.16978
 703.52;  357.832;  335.656;20015.037;22.17580
 704.09;  358.504;  340.656;19677.186;17.84848
 704.66;  363.843;  346.989;19568.000;16.85451
 705.23;  361.182;  350.988;19257.816;10.19386
 705.80;  361.521;  351.988;19628.631; 9.53321
 706.37;  355.527;  349.988;19556.779; 5.53923
 706.94;  359.199;  355.321;19584.594; 3.87859
 707.51;  361.205;  349.987;19760.076;11.21794
 708.08;  376.544;  359.320;20043.559;17.22396
 708.65;  386.216;  350.986;20189.041;35.22998
 709.22;  370.555;  341.986;19651.855;28.56934
 709.79;  363.894;  349.986;19270.004;13.90869
 710.36;  364.900;  363.319;19369.152; 1.58138
 710.93;  379.906;  381.318;19795.635;-1.41260
 711.50;  370.578;  352.985;19919.117;17.59342
 712.07;  361.917;  345.318;19608.598;16.59944
 712.64;  375.923;  342.651;19669.080;33.27212
 713.21;  387.928;  355.983;19819.896;31.94481
 713.78;  420.267;  376.316;20445.711;43.95083
 714.35;  414.273;  375.983;20508.859;38.29019
 714.92;  439.279;  366.316;20435.008;72.96287
 715.49;  428.951;  348.982;20004.822;79.96889
 716.06;  450.290;  348.315;19788.971;101.97491
 716.63;  466.962;  362.981;19764.121;103.98093
 717.20;  503.968;  380.648;19413.602;123.32029
 717.77;  533.640;  371.314;19021.418;162.32631
 718.34;  534.646;  363.980;18766.232;170.66566
 718.90;  536.652;  344.980;18770.381;191.67168
 719.47;  568.324;  355.646;18791.863;212.67770
 720.04;  599.330;  360.646;19031.346;238.68372
 720.61;  619.335;  358.646;19153.494;260.68974
 721.18;  610.008;  360.312;18889.975;249.69577
 721.75;  614.347;  359.312;18564.123;255.03512
 722.32;  643.019;  377.978;18622.939;265.04114
 722.89;  669.691;  376.311;19100.088;293.38049
 723.46;  689.030;  359.311;19353.902;329.71985
 724.02;  715.703;  354.310;19584.719;361.39253
 724.59;  766.042;  361.310;19350.533;404.73189
 725.16;  854.381;  397.976;19297.348;456.40458
 725.73;  922.386;  386.976;19182.164;535.41060
 726.30; 1018.725;  390.309;19355.979;628.41662
 726.87; 1126.731;  362.642;19694.127;764.08930
 727.44; 1227.070;  372.975;19432.275;854.09532
 728.00; 1287.742;  365.308;19773.092;922.43468
 728.57; 1355.081;  365.641;19477.574;989.44070
 729.14; 1456.754;  359.307;19822.055;1097.44672
 729.71; 1562.093;  348.973;19459.871;1213.11941
 730.28; 1649.765;  337.640;19419.686;1312.12543
 730.85; 1756.771;  326.306;19200.834;1430.46478
 731.41; 1862.443;  319.639;18486.316;1542.80413
 731.98; 1953.115;  338.305;18390.799;1614.81015
 732.55; 2059.788;  341.972;18782.947;1717.81617
 733.12; 2228.460;  347.638;19671.762;1880.82220
 733.69; 2432.799;  339.971;20102.244;2092.82822
 734.25; 2670.805;  355.971;20019.725;2314.83424
 734.82; 2859.477;  372.637;20139.207;2486.84026
 735.39; 3012.816;  364.636;20063.355;2648.17961
 735.96; 3106.488;  350.636;19865.838;2755.85230
 736.52; 3180.494;  349.636;20000.652;2830.85832
 737.09; 3306.166;  366.969;20167.469;2939.19767
 737.66; 3395.839;  370.635;20759.283;3025.20369
 738.23; 3535.844;  359.968;20092.100;3175.87638
 738.80; 3686.517;  352.301;19611.580;3334.21573
 739.36; 3922.856;  345.301;18943.063;3577.55509
 739.93; 4192.528;  375.300;18936.545;3817.22777
 740.50; 4503.534;  372.967;18826.359;4130.56713
 741.07; 4652.206;  385.633;18972.176;4266.57315
 741.63; 4764.878;  382.966;19638.656;4381.91250
 742.20; 4893.551;  387.632;19771.139;4505.91852
 742.77; 5167.223;  383.299;19531.287;4783.92454
 743.33; 5509.229;  364.298;19106.102;5144.93056
 743.90; 5767.568;  369.298;19501.252;5398.26992
 744.47; 5789.240;  361.964;20240.066;5427.27594
 745.04; 5730.246;  362.297;20933.215;5367.94863
 745.60; 5700.585;  352.630;20843.363;5347.95465
 746.17; 5933.591;  370.297;20547.512;5563.29400
 746.74; 6102.263;  366.629;19924.994;5735.63335
 747.30; 6258.269;  374.296;20715.809;5883.97271
 747.87; 6173.274;  353.962;21450.957;5819.31206
 748.44; 6200.280;  357.295;22028.105;5842.98475
 749.00; 6156.286;  355.628;21890.254;5800.65744
 749.57; 6241.958;  367.628;21725.070;5874.33012
 750.14; 6109.297;  385.961;21991.219;5723.33614
 750.70; 6001.969;  374.960;21818.701;5627.00883
 751.27; 5922.975;  378.627;21675.516;5544.34818
 751.84; 6203.647;  361.960;21091.998;5841.68754
 752.40; 6255.986;  369.293;21323.479;5886.69356
 752.97; 6035.659;  367.292;21319.961;5668.36624
 753.54; 5587.331;  353.625;21323.777;5233.70560
 754.10; 5335.670;  348.958;21391.592;4986.71162
 754.67; 5531.342;  361.291;21536.406;5170.05097
 755.24; 5553.681;  359.624;21920.223;5194.05699
 755.80; 5540.354;  373.291;21607.371;5167.06301
 756.37; 5263.359;  352.957;21613.520;4910.40237
 756.94; 5136.032;  367.957;22113.668;4768.07505
 757.50; 4953.037;  359.956;22258.150;4593.08108
 758.07; 4876.376;  364.622;22431.299;4511.75376
 758.63; 4749.715;  361.622;22199.447;4388.09312
 759.20; 4572.721;  372.955;22591.262;4199.76580
 759.77; 4369.727;  376.288;22920.078;3993.43849
 760.33; 4257.732;  378.954;22925.227;3878.77784
 760.90; 4209.405;  361.287;22471.707;3848.11720
 761.46; 4081.410;  356.620;21760.523;3724.78989
 762.03; 3858.083;  361.620;21761.006;3496.46257
 762.60; 3613.088;  375.286;22570.154;3237.80193
 763.16; 3423.094;  370.619;22878.303;3052.47461
 763.73; 3252.433;  362.286;22536.451;2890.14730
 764.29; 3073.772;  352.619;22107.600;2721.15332
 764.86; 2897.444;  362.285;21977.080;2535.15934
 765.42; 2731.450;  357.951;22619.563;2373.49870
 765.99; 2572.456;  348.284;22735.711;2224.17138
 766.55; 2463.795;  338.951;23092.193;2124.84407
 767.12; 2345.800;  347.284;22579.342;1998.51676
 767.68; 2271.806;  362.617;22369.490;1909.18944
 768.25; 2122.812;  371.616;22284.307;1751.19546
 768.82; 1994.817;  363.616;22295.121;1631.20148
 769.38; 1923.823;  364.949;22645.604;1558.87417
 769.95; 1846.162;  357.948;23549.084;1488.21353
 770.51; 1789.168;  365.615;24284.900;1423.55288
 771.08; 1695.173;  360.281;23650.383;1334.89223
 771.64; 1587.179;  355.614;22731.863;1231.56492
 772.21; 1474.851;  356.947;22328.346;1117.90427
 772.77; 1390.857;  365.280;22169.494;1025.57696
 773.34; 1330.863;  382.280;21831.643;948.58298
 773.90; 1258.535;  386.279;21070.457;872.25567
 774.47; 1177.874;  378.612;20875.939;799.26169
 775.03; 1152.546;  377.279;21079.422;775.26771
 775.60; 1122.552;  375.945;21690.904;746.60706
 776.16; 1092.558;  376.611;22072.053;715.94642
 776.73; 1014.230;  367.278;22032.201;646.95244
 777.29;  995.902;  354.277;21455.016;641.62513
 777.85;  943.241;  337.610;21414.164;605.63115
 778.42;  922.914;  332.943;21745.980;589.97050
 778.98;  854.586;  346.610;22017.129;507.97652
 779.55;  869.258;  370.609;22135.943;498.64921
 780.11;  839.597;  380.942;22074.092;458.65523
 780.68;  818.603;  375.275;22539.240;443.32791
 781.24;  747.275;  361.608;22990.389;385.66727
 781.81;  700.281;  346.274;22431.537;354.00662
 782.37;  666.953;  356.274;22027.020;310.67931
 782.93;  642.626;  361.940;21621.502;280.68533
 783.50;  621.631;  383.273;22023.984;238.35802
 784.06;  611.304;  372.940;22132.799;238.36404
 784.63;  589.976;  375.273;22028.947;214.70339
 785.19;  574.648;  369.606;21763.430;205.04275
 785.75;  553.321;  371.272;21401.578;182.04877
 786.32;  540.660;  369.938;21383.393;170.72145
 786.88;  530.665;  366.605;21538.541;164.06081
 787.45;  517.338;  365.604;21774.689;151.73349
 788.01;  511.010;  361.604;21860.838;149.40618
 788.57;  509.682;  371.270;22271.986;138.41220
 789.14;  485.355;  364.603;22843.469;120.75156
 789.70;  479.694;  379.603;22841.617;100.09091
 790.26;  470.366;  376.936;21801.766;93.43026
 790.83;  479.705;  376.269;20550.248;103.43628
 791.39;  465.044;  358.268;20172.063;106.77564
 791.95;  447.050;  350.935;20659.879;96.11499
 792.52;  437.055;  355.934;21805.693;81.12101
 793.08;  430.394;  361.267;22321.842;69.12703
 793.64;  419.067;  350.934;22560.324;68.13305
 794.21;  431.739;  357.933;22803.473;73.80574
 794.77;  435.411;  357.600;22277.287;77.81176
 795.33;  447.750;  364.266;21750.770;83.48445
 795.90;  429.089;  354.266;21123.586;74.82380
 796.46;  419.428;  355.932;21162.400;63.49649
 797.02;  417.101;  362.598;21530.883;54.50251
 797.59;  402.107;  362.265;21177.031;39.84186
 798.15;  402.446;  357.598;21131.846;44.84788
 798.71;  399.118;  362.597;20990.328;36.52057
 799.28;  400.457;  372.930;21199.811;27.52659
 799.84;  383.129;  360.263;21108.625;22.86594
 800.40;  380.802;  356.263;20607.107;24.53863
 800.96;  385.474;  343.263;20254.588;42.21132
 801.53;  411.813;  362.262;20295.404;49.55067
 802.09;  411.819;  359.929;20275.553;51.89003
 802.65;  405.158;  362.928;20067.367;42.22938
 803.21;  386.830;  358.261;20432.516;28.56873
 803.78;  376.502;  354.594;20642.998;21.90809
 804.34;  386.508;  355.260;20699.480;31.24744
 804.90;  395.180;  350.260;20094.963;44.92013
 805.46;  413.853;  358.926;20010.777;54.92615
 806.03;  408.525;  370.593;20266.260;37.93217
 806.59;  415.197;  389.259;20256.408;25.93819
 807.15;  408.870;  386.925;20078.889;21.94421
 807.71;  421.875;  387.925;19648.705;33.95023
 808.28;  417.214;  387.591;19655.854;29.62292
 808.84;  405.887;  383.591;19788.336;22.29560
 809.40;  393.226;  368.924;19894.816;24.30163
 809.96;  398.898;  361.257;19552.299;37.64098
 810.52;  377.570;  356.257;19407.115;21.31367
 811.09;  379.909;  373.923;19640.596; 5.98635
 811.65;  370.248;  365.256;19897.412; 4.99237
 812.21;  397.254;  369.256;19744.893;27.99839
 812.77;  399.593;  360.922;19008.375;38.67108
 813.33;  398.932;  364.922;18369.189;34.01044
 813.90;  398.604;  373.254;18218.672;25.34979
 814.46;  391.610;  366.921;18430.488;24.68914
 815.02;  400.282;  375.587;18944.969;24.69516
 815.58;  400.288;  361.920;19141.451;38.36785
 816.14;  399.960;  377.253;18947.934;22.70720
 816.70;  383.299;  363.586;18689.416;19.71322
 817.26;  389.638;  381.919;17993.230; 7.71925
 817.83;  380.644;  357.585;17728.713;23.05860
 818.39;  405.316;  377.918;16927.861;27.39795
 818.95;  411.322;  376.251;16724.010;35.07064
 819.51;  428.994;  393.251;16210.158;35.74333
 820.07;  420.667;  392.584;15921.307;28.08268
 820.63;  408.006;  387.584;15917.788;20.42203
 821.19;  391.011;  376.583;16503.270;14.42806
 821.75;  392.017;  366.916;16666.086;25.10074
 822.32;  398.356;  369.583;16555.900;28.77343
 822.88;  404.362;  393.249;16101.716;11.11278
 823.44;  398.701;  392.249;16620.865; 6.45214
 824.00;  401.373;  389.915;16768.346;11.45816
 824.56;  395.712;  367.581;16731.828;28.13084
 825.12;  405.718;  382.247;16567.311;23.47020
 825.68;  404.723;  392.247;16480.793;12.47622
 826.24;  416.729;  392.580;16248.274;24.14891
 826.80;  402.735;  379.246;16301.423;23.48826
 827.36;  416.074;  377.246;16151.237;38.82761
 827.92;  424.413;  371.912;16267.720;52.50030
 828.48;  414.418;  369.579;16188.535;44.83965
 829.04;  386.424;  359.912;16662.350;26.51234
 829.60;  366.763;  368.578;16799.832;-1.81497
 830.17;  377.435;  374.911;16671.646; 2.52438
 830.73;  382.774;  384.244;16006.129;-1.46960
 831.29;  392.447;  392.910;15760.611;-0.46358
 831.85;  397.119;  389.577;15012.760; 7.54244
 832.41;  394.791;  387.243;14982.908; 7.54846
 832.97;  404.130;  385.909;15154.057;18.22115
 833.53;  399.469;  389.242;15648.205;10.22717
 834.09;  402.808;  407.575;15576.021;-4.76681
 834.65;  400.481;  405.908;14875.502;-5.42745
 835.21;  390.820;  395.908;14307.317;-5.08810
 835.77;  378.159;  362.574;13841.800;15.58459
 836.33;  374.498;  359.574;13653.614;14.92394
 836.89;  396.170;  362.240;13893.430;33.92996
 837.45;  410.509;  376.573;14111.912;33.93598
 838.01;  399.515;  374.906;14352.727;24.60867
 838.57;  378.520;  370.239;14142.209; 8.28136
 839.13;  377.193;  358.239;14418.690;18.95404
 839.69;  396.198;  359.572;14541.839;36.62673
 840.24;  399.871;  369.905;14573.654;29.96608
 840.80;  398.543;  360.238;14173.470;38.30544
 841.36;  386.549;  360.571;14339.618;25.97813
 841.92;  388.554;  357.237;14360.767;31.31748
 842.48;  382.560;  366.570;14231.249;15.99017
 843.04;  367.899;  348.236;13915.397;19.66285
 843.60;  375.238;  354.903;13813.213;20.33554
 844.16;  373.244;  366.569;13798.361; 6.67489
 844.72;  386.916;  379.569;13892.843; 7.34758
 845.28;  367.255;  354.902;14675.658;12.35360
 845.84;  368.594;  356.235;15565.807;12.35962
 846.40;  364.933;  358.901;15814.955; 6.03231
 846.96;  378.605;  387.234;15199.438;-8.62834
 847.52;  371.611;  373.900;14285.253;-2.28898
 848.07;  382.283;  382.233;13662.067; 0.05037
 848.63;  388.289;  373.566;13693.883;14.72306
 849.19;  389.628;  380.899;13916.031; 8.72908
 849.75;  390.634;  373.232;13944.847;17.40177
 850.31;  383.973;  373.898;13747.995;10.07445
 850.87;  380.645;  363.898;13583.811;16.74714
 851.43;  376.318;  370.231;13086.626; 6.08649
 851.99;  378.990;  359.231;12522.441;19.75918
 852.54;  389.662;  364.230;12295.590;25.43187
 853.10;  385.668;  359.897;12919.738;25.77122
 853.66;  382.007;  365.563;13200.220;16.44391
 854.22;  387.013;  371.229;13075.702;15.78326
 854.78;  389.018;  370.229;12893.851;18.78928
 855.34;  394.357;  370.895;12925.332;23.46197
 855.89;  394.363;  358.228;13186.814;36.13466
 856.45;  394.369;  363.895;13034.296;30.47401
 857.01;  385.374;  367.894;13122.778;17.48003
 857.57;  367.047;  376.561;13027.927;-9.51395
 858.13;  359.719;  356.227;13079.075; 3.49207
 858.69;  360.391;  355.226;12890.557; 5.16476
 859.24;  362.397;  344.226;12733.039;18.17078
 859.80;  360.736;  348.226;12606.188;12.51013
 860.36;  353.075;  341.225;12331.336;11.84949
 860.92;  357.414;  349.558;12080.818; 7.85551
 861.47;  369.753;  363.558;12137.300; 6.19486
 862.03;  369.425;  364.224;12220.115; 5.20088
 862.59;  379.431;  368.224;12141.597;11.20690
 863.15;  365.437;  358.890;12184.079; 6.54626
 863.71;  368.776;  349.557;12724.895;19.21894
 864.26;  378.115;  355.890;13458.376;22.22496
 864.82;  386.787;  358.889;13703.191;27.89765
 865.38;  381.126;  363.556;13527.340;17.57034
 865.94;  364.798;  352.889;13256.821;11.90969
 866.49;  357.137;  348.888;12865.970; 8.24905
 867.05;  371.143;  351.555;12372.119;19.58840
 867.61;  362.149;  349.221;11909.268;12.92775
 868.16;  361.821;  351.554;11562.083;10.26711
 868.72;  362.493;  364.220;11612.897;-1.72687
 869.28;  360.166;  355.553;11874.046; 4.61248
 869.84;  363.171;  356.886;12161.195; 6.28517
 870.39;  365.177;  352.886;12307.010;12.29119
 870.95;  377.516;  361.885;12030.158;15.63054
 871.51;  371.188;  351.552;12129.641;19.63656
 872.06;  368.861;  349.885;12195.122;18.97592
 872.62;  370.533;  361.884;12401.604; 8.64861
 873.18;  377.539;  369.884;12212.753; 7.65463
 873.73;  370.878;  367.884;11674.234; 2.99398
 874.29;  356.217;  355.550;11150.050; 0.66667
 874.85;  345.217;  345.217;10970.050; 0.00000
 875.40;  348.883;  347.217;11316.717; 1.66667
 875.96;  381.883;  355.883;11993.384;26.00000
 876.52;  402.550;  370.217;12513.384;32.33333
 877.07;  406.550;  369.217;12370.384;37.33333
 877.63;  378.217;  360.550;11869.717;17.66667
 878.19;  367.217;  354.217;11249.717;13.00000
 878.74;  361.550;  351.217;11089.384;10.33333
 879.30;  363.217;  355.883;11260.717; 7.33333
 879.86;  360.550;  360.883;11782.384;-0.33333
 880.41;  352.550;  369.217;12469.384;-16.66667
 880.97;  367.217;  367.217;12610.050; 0.00000
 881.52;  366.550;  368.217;12556.050;-1.66667
 882.08;  382.550;  362.550;12109.050;20.00000
 882.64;  377.217;  365.883;12182.717;11.33333
 883.19;  379.217;  363.550;12049.384;15.66667
 883.75;  374.550;  362.550;12605.717;12.00000
 884.30;  364.883;  357.550;12922.717; 7.33333
 884.86;  369.550;  369.883;13210.717;-0.33333
 885.42;  364.883;  373.550;12776.384;-8.66667
 885.97;  375.217;  372.550;12157.717; 2.66667
 886.53;  369.550;  366.217;12010.384; 3.33333
 887.08;  372.217;  369.883;11993.384; 2.33333
 887.64;  372.550;  369.883;12196.050; 2.66667
 888.19;  379.550;  368.883;12223.050;10.66667
 888.75;  371.883;  363.550;12497.717; 8.33333
 889.31;  355.550;  375.217;12556.717;-19.66667
 889.86;  346.883;  365.883;12579.384;-19.00000
 890.42;  353.883;  376.550;12512.717;-22.66667
 890.97;  368.217;  368.550;12546.717;-0.33333
 891.53;  364.217;  371.217;12298.717;-7.00000
 892.08;  364.550;  359.217;11867.050; 5.33333
 892.64;  374.217;  365.883;11471.050; 8.33333
 893.19;  381.217;  365.883;11192.384;15.33333
 893.75;  387.217;  367.883;11232.717;19.33333
 894.30;  369.883;  358.550;11268.717;11.33333
 894.86;  371.217;  375.883;11375.050;-4.66667
 895.41;  377.883;  386.550;11077.050;-8.66667
 895.97;  383.883;  390.550;10754.384;-6.66667
 896.52;  376.883;  382.217;10706.384;-5.33333
 897.08;  363.550;  380.217;10673.050;-16.66667
 897.63;  363.550;  374.883;10628.384;-11.33333
 898.19;  373.550;  372.883;10226.717; 0.66667
 898.74;  373.217;  362.883; 9990.050;10.33333
 899.30;  369.883;  348.883;10078.717;21.00000
 899.85;  367.217;  345.217;10362.717;22.00000
 900.41;  371.217;  344.550;10525.717;26.66667
 900.96;  373.550;  355.550;10328.717;18.00000
 901.51;  376.217;  349.883;10183.717;26.33333
 902.07;  369.883;  356.883;10590.717;13.00000
 902.62;  383.883;  371.550;10806.717;12.33333
 903.18;  381.883;  371.883;10676.384;10.00000
 903.73;  379.883;  358.550;10225.717;21.33333
 904.29;  356.550;  350.550;10212.717; 6.00000
 904.84;  357.883;  350.550;10237.384; 7.33333
 905.39;  350.883;  354.550;10158.717;-3.66667
 905.95;  361.217;  360.550;10147.384; 0.66667
 906.50;  360.217;  373.883;10552.717;-13.66667
 907.06;  367.217;  376.550;10773.717;-9.33333
 907.61;  377.217;  381.217;10740.050;-4.00000
 908.16;  375.217;  381.217;10337.384;-6.00000
 908.72;  366.883;  380.883;10028.384;-14.00000
 909.27;  354.883;  377.550; 9730.384;-22.66667
 909.82;  358.217;  372.217; 9568.384;-14.00000
 910.38;  381.883;  370.550; 9726.050;11.33333
 910.93;  369.550;  351.883;10044.050;17.66667
 911.49;  367.550;  337.883;10146.717;29.66667
 912.04;  361.550;  339.550; 9863.717;22.00000
 912.59;  384.550;  363.550; 9516.717;21.00000
 913.15;  387.550;  373.217; 9299.717;14.33333
 913.70;  386.217;  371.883; 9076.050;14.33333
 914.25;  379.217;  357.550; 8912.717;21.66667
 914.81;  384.217;  372.550; 8810.384;11.66667
 915.36;  390.217;  373.883; 8993.717;16.33333
 915.91;  387.217;  388.883; 9431.384;-1.66667
 916.47;  373.883;  372.883; 9898.384; 1.00000
 917.02;  373.217;  387.883;10255.384;-14.66667
 917.57;  376.217;  379.883;10258.050;-3.66667
 918.12;  386.550;  391.217;10327.717;-4.66667
 918.68;  390.217;  389.883;10344.384; 0.33333
 919.23;  394.217;  383.217;10266.717;11.00000
 919.78;  394.550;  373.883;10062.384;20.66667
 920.34;  388.883;  371.217; 9693.050;17.66667
 920.89;  388.883;  377.550; 9337.050;11.33333
 921.44;  382.883;  393.550; 8994.717;-10.66667
 921.99;  393.550;  393.550; 8962.050; 0.00000
 922.55;  400.883;  398.217; 9189.384; 2.66667
 923.10;  407.217;  384.217; 9378.717;23.00000
 923.65;  391.217;  387.550; 9298.050; 3.66667
 924.20;  383.550;  383.550; 9003.384; 0.00000
 924.76;  374.217;  378.217; 8787.717;-4.00000
 925.31;  372.550;  364.550; 9104.050; 8.00000
 925.86;  377.217;  373.550; 9394.717; 3.66667
 926.41;  382.550;  384.550; 9650.384;-2.00000
 926.97;  386.550;  389.217; 9343.050;-2.66667
 927.52;  381.883;  379.883; 9219.384; 2.00000
 928.07;  389.217;  375.217; 9082.384;14.00000
 928.62;  391.550;  380.883; 9245.717;10.66667
 929.17;  398.217;  395.217; 9050.717; 3.00000
 929.73;  398.217;  404.883; 8735.050;-6.66667
 930.28;  407.217;  394.883; 8451.717;12.33333
 930.83;  406.217;  384.550; 8556.050;21.66667
 931.38;  399.217;  368.550; 8727.717;30.66667
 931.93;  392.550;  371.883; 8875.717;20.66667
 932.48;  398.550;  378.550; 8865.717;20.00000
 933.04;  390.550;  382.217; 8842.050; 8.33333
 933.59;  390.217;  394.217; 8648.717;-4.00000
 934.14;  376.550;  379.550; 8426.717;-3.00000
 934.69;  402.550;  395.217; 8319.384; 7.33333
 935.24;  400.217;  393.217; 8389.050; 7.00000
 935.79;  389.550;  395.217; 8373.050;-5.66667
 936.34;  377.883;  395.883; 8271.050;-18.00000
 936.90;  378.217;  393.883; 8251.384;-15.66667
 937.45;  397.883;  398.217; 8392.384;-0.33333
 938.00;  398.883;  401.217; 8507.050;-2.33333
 938.55;  404.217;  392.217; 8588.384;12.00000
 939.10;  393.883;  383.883; 8547.384;10.00000
 939.65;  384.550;  370.217; 8603.050;14.33333
 940.20;  374.550;  374.550; 8436.384; 0.00000
 940.75;  372.217;  386.883; 8479.050;-14.66667
 941.31;  379.550;  401.217; 8497.717;-21.66667
 941.86;  386.883;  413.550; 8403.717;-26.66667
 942.41;  384.883;  406.550; 8257.050;-21.66667
 942.96;  377.217;  390.550; 7893.050;-13.33333
 943.51;  370.883;  388.217; 7914.383;-17.33333
 944.06;  368.550;  386.883; 7972.383;-18.33333
 944.61;  375.550;  384.550; 8161.383;-9.00000
 945.16;  367.217;  366.883; 8149.383; 0.33333
 945.71;  360.883;  367.550; 8118.717;-6.66667
 946.26;  359.217;  372.883; 8013.383;-13.66667
 946.81;  370.550;  381.550; 7903.717;-11.00000
 947.36;  381.217;  360.883; 7614.050;20.33333
 947.91;  390.217;  358.883; 7557.383;31.33333
 948.46;  379.217;  339.217; 7390.717;40.00000
 949.01;  402.550;  363.217; 7476.717;39.33333
 949.56;  388.883;  366.883; 7488.383;22.00000
 950.11;  400.883;  379.883; 7438.383;21.00000
 950.66;  370.550;  367.550; 7292.717; 3.00000
 951.21;  378.550;  370.217; 7098.050; 8.33333
 951.76;  359.550;  372.883; 7087.050;-13.33333
 952.31;  369.550;  378.883; 6796.383;-9.33333
 952.86;  371.550;  384.217; 6839.383;-12.66667
 953.41;  378.883;  378.217; 6867.717; 0.66667
 953.96;  377.550;  381.550; 7220.383;-4.00000
 954.51;  373.883;  368.217; 7247.050; 5.66667
 955.06;  377.550;  379.217; 7028.383;-1.66667
 955.61;  385.217;  382.550; 6741.050; 2.66667
 956.16;  386.883;  391.550; 6695.050;-4.66667
 956.71;  398.217;  399.217; 6798.050;-1.00000
 957.26;  390.217;  389.883; 6774.050; 0.33333
 957.81;  393.550;  395.883; 6552.050;-2.33333
 958.36;  382.883;  372.217; 6622.383;10.66667
 958.91;  392.550;  383.883; 6678.717; 8.66667
 959.46;  378.883;  370.550; 6665.050; 8.33333
 960.01;  379.550;  376.550; 6331.050; 3.00000
 960.56;  371.883;  382.217; 6260.050;-10.33333
 961.11;  365.883;  381.550; 6427.717;-15.66667
 961.65;  346.550;  379.217; 6514.717;-32.66667
 962.20;  345.550;  359.217; 6492.717;-13.66667
 962.75;  349.883;  348.217; 6349.717; 1.66667
 963.30;  379.550;  361.883; 6415.383;17.66667
 963.85;  369.217;  368.883; 6385.050; 0.33333
 964.40;  362.217;  368.550; 6266.050;-6.33333
 964.95;  344.217;  356.550; 6133.717;-12.33333
 965.50;  361.883;  366.550; 6064.383;-4.66667
 966.05;  377.217;  378.550; 6130.383;-1.33333
 966.59;  389.550;  398.550; 6182.717;-9.00000
 967.14;  385.883;  389.550; 6192.383;-3.66667
 967.69;  361.550;  380.217; 6072.383;-18.66667
 968.24;  356.883;  377.883; 5933.050;-21.00000
 968.79;  357.883;  380.550; 5953.383;-22.66667
 969.34;  391.550;  366.550; 5986.050;25.00000
 969.89;  389.217;  353.550; 6223.383;35.66667
 970.43;  383.217;  345.550; 6331.383;37.66667
 970.98;  377.550;  359.217; 6317.050;18.33333
 971.53;  389.217;  373.217; 6080.050;16.00000
 972.08;  400.550;  386.217; 5932.383;14.33333
 972.63;  402.550;  399.550; 5835.050; 3.00000
 973.17;  392.217;  378.883; 5842.383;13.33333
 973.72;  374.883;  366.550; 5730.050; 8.33333
 974.27;  354.217;  363.550; 5770.383;-9.33333
 974.82;  357.883;  373.217; 5876.383;-15.33333
 975.37;  367.550;  377.883; 5987.717;-10.33333
 975.91;  368.217;  376.217; 5998.050;-8.00000
 976.46;  364.217;  375.550; 5885.383;-11.33333
 977.01;  361.217;  367.883; 5918.717;-6.66667
 977.56;  371.217;  358.217; 5945.050;13.00000
 978.10;  388.883;  363.217; 5940.050;25.66667
 978.65;  387.217;  368.550; 5932.050;18.66667
 979.20;  409.217;  365.550; 6063.717;43.66667
 979.75;  414.883;  361.550; 6260.383;53.33333
 980.29;  421.883;  359.217; 6088.050;62.66667
 980.84;  400.550;  377.550; 5888.717;23.00000
 981.39;  385.883;  383.550; 5598.717; 2.33333
 981.94;  387.550;  398.883; 5566.050;-11.33333
 982.48;  395.883;  394.883; 5503.050; 1.00000
 983.03;  395.883;  385.217; 5630.717;10.66667
 983.58;  386.550;  356.883; 5820.383;29.66667
 984.12;  374.550;  361.217; 6206.717;13.33333
 984.67;  363.550;  359.550; 6301.050; 4.00000
 985.22;  375.550;  374.217; 6210.717; 1.33333
 985.77;  378.883;  374.883; 5910.717; 4.00000
 986.31;  394.883;  381.883; 5834.383;13.00000
 986.86;  398.883;  385.550; 5939.717;13.33333
 987.41;  411.217;  391.883; 6087.383;19.33333
 987.95;  411.217;  395.217; 6282.050;16.00000
 988.50;  400.883;  404.883; 6379.383;-4.00000
 989.05;  404.883;  402.550; 6522.717; 2.33333
 989.59;  398.217;  400.550; 6563.383;-2.33333
 990.14;  401.883;  384.217; 6530.383;17.66667
 990.69;  405.217;  388.550; 6307.717;16.66667
 991.23;  410.550;  390.550; 6208.383;20.00000
 991.78;  408.550;  407.550; 6280.050; 1.00000
 992.32;  385.883;  399.883; 6131.050;-14.00000
 992.87;  390.550;  393.883; 5778.717;-3.33333
 993.42;  387.550;  391.883; 5548.050;-4.33333
 993.96;  402.883;  388.217; 5572.383;14.66667
 994.51;  397.217;  394.550; 5604.050; 2.66667
 995.05;  402.550;  392.217; 5541.717;10.33333
 995.60;  406.217;  398.550; 5545.383; 7.66667
 996.15;  414.550;  402.883; 5610.050;11.66667
 996.69;  413.550;  404.883; 5482.717; 8.66667
 997.24;  402.883;  405.883; 5442.050;-3.00000
 997.78;  406.217;  402.217; 5442.383; 4.00000
 998.33;  413.883;  392.883; 5443.050;21.00000
 998.88;  389.883;  379.217; 5371.383;10.66667
 999.42;  384.217;  374.883; 5271.717; 9.33333
 999.97;  370.883;  381.883; 5186.717;-11.00000
1000.51;  401.217;  403.217; 5186.717;-2.00000
1001.06;  391.550;  408.550; 5228.383;-17.00000
1001.60;  395.550;  405.883; 5409.050;-10.33333
1002.15;  402.217;  404.550; 5517.383;-2.33333
1002.69;  400.217;  406.550; 5519.383;-6.33333
1003.24;  406.883;  407.883; 5706.050;-1.00000
1003.78;  394.550;  399.217; 5795.383;-4.66667
1004.33;  396.550;  390.550; 5818.383; 6.00000
1004.87;  402.550;  401.217; 5430.050; 1.33333
1005.42;  407.550;  418.883; 5065.717;-11.33333
1005.96;  420.217;  439.550; 4834.383;-19.33333
1006.51;  417.883;  437.883; 4825.717;-20.00000
1007.05;  425.550;  422.883; 4895.383; 2.66667
1007.60;  411.883;  400.217; 5158.050;11.66667
1008.14;  398.550;  392.217; 5411.050; 6.33333
1008.69;  392.217;  388.550; 5300.717; 3.66667
1009.23;  394.550;  394.550; 4836.383; 0.00000
1009.78;  395.550;  391.217; 4375.383; 4.33333
1010.32;  395.550;  399.883; 4132.717;-4.33333
1010.87;  383.550;  396.550; 4145.050;-13.00000
1011.41;  390.550;  399.217; 4244.383;-8.66667
1011.96;  387.550;  396.217; 4424.717;-8.66667
1012.50;  400.550;  405.883; 4654.383;-5.33333
1013.05;  414.550;  415.550; 4628.383;-1.00000
1013.59;  406.550;  405.217; 4760.050; 1.33333
1014.13;  401.550;  395.883; 4725.717; 5.66667
1014.68;  392.550;  397.883; 4748.050;-5.33333
1015.22;  405.883;  396.550; 4518.050; 9.33333
1015.77;  412.883;  401.217; 4101.717;11.66667
1016.31;  399.550;  383.883; 3920.050;15.66667
1016.85;  385.550;  399.883; 4102.383;-14.33333
1017.40;  372.883;  386.883; 4636.050;-14.00000
1017.94;  379.550;  392.217; 5036.383;-12.66667
1018.49;  375.217;  373.217; 5182.717; 2.00000
1019.03;  382.550;  375.883; 5190.717; 6.66667
1019.57;  373.550;  375.217; 4890.050;-1.66667
1020.12;  387.883;  380.883; 4504.383; 7.00000
1020.66;  377.217;  382.217; 4115.717;-5.00000
1021.20;  391.217;  386.883; 4056.050; 4.33333
1021.75;  383.550;  378.217; 3920.050; 5.33333
1022.29;  395.217;  377.883; 3825.717;17.33333
1022.83;  392.217;  387.217; 3779.050; 5.00000
1023.38;  405.550;  393.217; 3879.383;12.33333
1023.92;  404.550;  393.550; 3970.383;11.00000
1024.46;  405.550;  392.550; 3929.717;13.00000
1025.01;  388.550;  389.550; 3677.717;-1.00000
1025.55;  392.217;  390.883; 3468.383; 1.33333
1026.09;  393.550;  381.883; 3393.050;11.66667
1026.64;  392.550;  381.550; 3514.050;11.00000
1027.18;  380.550;  377.883; 3501.050; 2.66667
1027.72;  378.550;  367.883; 3393.050;10.66667
1028.27;  374.883;  363.217; 3359.050;11.66667
1028.81;  388.883;  367.217; 3471.383;21.66667
1029.35;  393.217;  361.550; 3480.717;31.66667
1029.89;  399.883;  365.550; 3500.717;34.33333
1030.44;  397.550;  375.883; 3421.383;21.66667
1030.98;  393.550;  387.550; 3358.383; 6.00000
1031.52;  397.883;  398.883; 3147.383;-1.00000
1032.07;  402.550;  396.217; 2868.050; 6.33333
1032.61;  407.217;  404.217; 2671.383; 3.00000
1033.15;  414.217;  413.550; 2616.383; 0.66667
1033.69;  400.883;  410.550; 2764.717;-9.66667
1034.23;  393.217;  412.217; 3010.383;-19.00000
1034.78;  383.550;  395.550; 3182.050;-12.00000
1035.32;  384.550;  383.550; 3183.050; 1.00000
1035.86;  381.883;  379.550; 3099.717; 2.33333
1036.40;  390.550;  390.550; 2880.383; 0.00000
1036.95;  394.217;  406.883; 2624.717;-12.66667
1037.49;  390.217;  398.550; 2367.050;-8.33333
1038.03;  389.217;  401.883; 2396.383;-12.66667
1038.57;  409.883;  409.217; 2530.717; 0.66667
1039.11;  416.217;  415.550; 2698.383; 0.66667
1039.66;  403.550;  408.550; 2777.717;-5.00000
1040.20;  388.217;  402.217; 2840.050;-14.00000
1040.74;  395.550;  407.883; 2690.050;-12.33333
1041.28;  401.217;  409.550; 2404.717;-8.33333
1041.82;  410.883;  415.550; 2112.050;-4.66667
1042.36;  403.883;  413.883; 1971.050;-10.00000
1042.91;  412.217;  409.217; 1960.717; 3.00000
1043.45;  407.217;  395.217; 2155.717;12.00000
1043.99;  406.217;  398.217; 2417.050; 8.00000
1044.53;  401.550;  393.883; 2632.050; 7.66667
1045.07;  406.217;  391.883; 2606.050;14.33333
1045.61;  409.550;  382.883; 2566.383;26.66667
1046.15;  402.550;  388.550; 2342.050;14.00000
1046.69;  387.883;  393.217; 2093.383;-5.33333
1047.24;  380.217;  388.883; 1780.050;-8.66667
1047.78;  385.217;  381.883; 1719.050; 3.33333
1048.32;  394.217;  380.217; 1784.717;14.00000
1048.86;  397.550;  381.883; 1958.050;15.66667
1049.40;  386.883;  374.217; 2057.717;12.66667
1049.94;  373.883;  378.550; 2161.050;-4.66667
1050.48;  370.883;  372.217; 2210.383;-1.33333
1051.02;  375.217;  382.217; 2197.717;-7.00000
1051.56;  376.217;  377.883; 2093.050;-1.66667
1052.10;  377.550;  386.217; 1964.383;-8.66667
1052.64;  375.217;  386.217; 1861.383;-11.00000
1053.18;  364.217;  386.217; 1852.717;-22.00000
1053.72;  384.550;  391.217; 1841.050;-6.66667
1054.26;  400.883;  393.883; 1862.717; 7.00000
1054.81;  422.883;  408.883; 1840.383;14.00000
1055.35;  400.883;  400.883; 1846.717; 0.00000
1055.89;  388.883;  396.883; 1905.717;-8.00000
1056.43;  368.550;  384.550; 2026.383;-16.00000
1056.97;  372.883;  384.550; 2040.050;-11.66667
1057.51;  372.550;  375.883; 1995.050;-3.33333
1058.05;  376.883;  359.883; 1880.383;17.00000
1058.59;  380.217;  362.550; 1936.383;17.66667
1059.13;  390.550;  383.883; 1974.717; 6.66667
1059.67;  396.550;  395.883; 1990.717; 0.66667
1060.21;  391.550;  401.550; 1939.050;-10.00000
1060.75;  369.217;  388.217; 1932.383;-19.00000
1061.29;  386.217;  386.883; 1961.717;-0.66667
1061.82;  391.550;  390.883; 1914.717; 0.66667
1062.36;  400.550;  380.883; 1813.383;19.66667
1062.90;  379.550;  389.217; 1634.383;-9.66667
1063.44;  367.550;  378.550; 1543.717;-11.00000
1063.98;  363.217;  396.550; 1539.050;-33.33333
1064.52;  359.883;  379.883; 1597.383;-20.00000
1065.06;  364.550;  382.883; 1680.050;-18.33333
1065.60;  383.550;  386.883; 1773.717;-3.33333
1066.14;  397.550;  401.550; 1885.717;-4.00000
1066.68;  394.550;  387.883; 2016.050; 6.66667
1067.22;  376.217;  367.550; 2070.717; 8.66667
1067.76;  366.550;  371.550; 2118.050;-5.00000
1068.30;  384.883;  396.883; 2054.383;-12.00000
1068.84;  390.550;  416.883; 1919.717;-26.33333
1069.37;  400.217;  409.550; 1737.717;-9.33333
1069.91;  389.550;  391.217; 1558.383;-1.66667
1070.45;  393.217;  369.883; 1452.050;23.33333
1070.99;  381.883;  362.550; 1548.050;19.33333
1071.53;  378.217;  377.217; 1588.050; 1.00000
1072.07;  384.550;  388.217; 1728.383;-3.66667
1072.61;  393.883;  394.883; 1758.717;-1.00000
1073.15;  405.550;  380.217; 1970.717;25.33333
1073.68;  410.550;  386.550; 2108.050;24.00000
1074.22;  405.217;  396.550; 2209.383; 8.66667
1074.76;  394.550;  397.550; 2103.050;-3.00000
1075.30;  382.550;  400.217; 1876.050;-17.66667
1075.84;  391.217;  396.217; 1618.050;-5.00000
1076.38;  395.550;  403.883; 1502.717;-8.33333
1076.91;  389.550;  390.217; 1494.717;-0.66667
1077.45;  380.217;  396.217; 1579.717;-16.00000
1077.99;  386.883;  403.550; 1621.383;-16.66667
1078.53;  391.883;  400.883; 1626.383;-9.00000
1079.07;  399.217;  387.883; 1518.050;11.33333
1079.60;  390.883;  378.550; 1452.050;12.33333
1080.14;  404.883;  396.217; 1472.050; 8.66667
1080.68;  404.217;  391.883; 1642.717;12.33333
1081.22;  402.883;  383.217; 1986.717;19.66667
1081.76;  395.217;  392.217; 2250.383; 3.00000
1082.29;  392.550;  388.217; 2364.717; 4.33333
1082.83;  410.217;  406.883; 2190.717; 3.33333
1083.37;  416.550;  397.883; 1983.383;18.66667
1083.91;  423.883;  422.217; 1694.717; 1.66667
1084.44;  404.550;  405.550; 1419.050;-1.00000
1084.98;  407.217;  404.217; 1173.717; 3.00000
1085.52;  393.217;  392.217; 1038.717; 1.00000
1086.05;  387.883;  400.883; 1058.383;-13.00000
1086.59;  377.550;  389.883; 1228.050;-12.33333
1087.13;  401.217;  406.883; 1505.717;-5.66667
1087.67;  409.883;  414.217; 1785.050;-4.33333
1088.20;  413.550;  426.883; 2001.383;-13.33333
1088.74;  414.217;  418.550; 2126.383;-4.33333
1089.28;  421.550;  415.217; 2245.383; 6.33333
1089.81;  417.883;  412.883; 2357.717; 5.00000
1090.35;  400.883;  429.217; 2450.717;-28.33333
1090.89;  388.217;  420.883; 2351.383;-32.66667
1091.42;  402.550;  416.217; 2113.717;-13.66667
1091.96;  412.883;  397.217; 1780.717;15.66667
1092.50;  428.883;  402.550; 1532.383;26.33333
1093.03;  419.883;  405.883; 1297.050;14.00000
1093.57;  426.883;  420.550; 1124.050; 6.33333
1094.11;  420.883;  416.217;  959.717; 4.66667
1094.64;  415.217;  420.883;  891.050;-5.66667
1095.18;  401.883;  406.217;  891.383;-4.33333
1095.72;  397.217;  421.217;  951.050;-24.00000
1096.25;  415.550;  437.883; 1046.717;-22.33333
1096.79;  413.217;  436.883; 1087.383;-23.66667
1097.33;  422.550;  431.217; 1175.050;-8.66667
1097.86;  400.550;  415.217; 1259.050;-14.66667
1098.40;  412.217;  405.550; 1395.383; 6.66667
1098.93;  402.550;  389.883; 1502.050;12.66667
1099.47;  424.550;  388.550; 1558.383;36.00000
1100.01;  419.217;  404.217; 1581.717;15.00000

