Al flat minus dark 35.6
Integration time [ms]: 500.000
Averaging Nr. [scans]: 1
Smoothing Nr. [pixels]: 1
Data measured with spectrometer [name]: 7413129SP
Wave   ;Sample   ;Dark     ;Reference;Scope Corrected for Dark
[nm]   ;[counts] ;[counts] ;[counts] 

 175.41;  676.819;  633.150;  566.932;43.66913
 176.01;  673.858;  629.483;  615.663;44.37499
 176.61;  686.459;  650.483;  662.269;35.97547
 177.21;  677.219;  668.484;  679.992; 8.73531
 177.81;  715.797;  702.150;  724.578;13.64707
 178.41;  671.880;  649.484;  675.957;22.39587
 179.01;  581.765;  555.152;  600.735;26.61287
 179.61;  535.763;  522.819;  537.037;12.94378
 180.21;  569.638;  575.152;  594.982;-5.51339
 180.81;  652.585;  664.817;  669.022;-12.23160
 181.42;  664.720;  691.150;  682.508;-26.43014
 182.02;  614.685;  642.484;  619.446;-27.79899
 182.62;  580.576;  612.817;  575.710;-32.24020
 183.22;  585.807;  626.482;  609.675;-40.67531
 183.82;  609.896;  650.148;  629.148;-40.25256
 184.42;  603.048;  616.139;  630.905;-13.09129
 185.02;  646.489;  623.787;  658.936;22.70179
 185.62;  643.416;  593.444;  667.908;49.97203
 186.22;  636.578;  594.777;  646.056;41.80048
 186.82;  566.892;  534.445;  573.313;32.44758
 187.42;  570.826;  538.111;  552.586;32.71473
 188.02;  577.727;  540.109;  570.614;37.61782
 188.62;  567.505;  525.773;  571.618;41.73282
 189.22;  583.856;  553.104;  609.114;30.75231
 189.82;  590.516;  568.770;  616.500;21.74614
 190.43;  617.460;  603.101;  643.929;14.35876
 191.03;  648.271;  628.097;  653.963;20.17353
 191.63;  696.708;  645.762;  661.901;50.94667
 192.23;  685.323;  635.424;  649.452;49.89865
 192.83;  620.178;  567.419;  590.339;52.75864
 193.43;  576.103;  548.416;  582.477;27.68739
 194.03;  591.140;  555.745;  597.109;35.39428
 194.63;  657.048;  631.068;  666.731;25.97948
 195.23;  654.969;  643.390;  661.787;11.57930
 195.83;  656.924;  658.053;  664.619;-1.12921
 196.43;  628.137;  620.721;  631.088; 7.41621
 197.03;  636.008;  616.384;  652.902;19.62431
 197.63;  640.986;  603.382;  636.333;37.60460
 198.23;  710.769;  648.720;  703.145;62.04971
 198.83;  699.455;  628.714;  686.878;70.74057
 199.43;  725.940;  680.034;  721.958;45.90648
 200.03;  631.232;  630.036;  644.077; 1.19583
 200.63;  705.222;  695.393;  709.782; 9.82829
 201.23;  697.754;  677.418;  679.286;20.33582
 201.83;  744.796;  697.430;  724.197;47.36589
 202.43;  670.441;  624.433;  652.638;46.00822
 203.03;  659.146;  612.768;  675.584;46.37839
 203.63;  638.204;  604.771;  647.068;33.43251
 204.23;  648.678;  611.774;  649.383;36.90445
 204.83;  623.826;  591.772;  616.636;32.05388
 205.43;  605.154;  577.106;  601.601;28.04778
 206.03;  638.528;  598.776;  644.766;39.75261
 206.63;  639.124;  588.111;  643.250;51.01373
 207.23;  646.883;  603.110;  655.060;43.77349
 207.83;  615.968;  613.109;  626.863; 2.85923
 208.43;  652.955;  666.444;  668.096;-13.48874
 209.03;  694.268;  681.778;  690.048;12.49046
 209.63;  681.924;  646.442;  672.823;35.48178
 210.22;  707.114;  635.776;  675.966;71.33721
 210.82;  680.888;  618.112;  667.251;62.77606
 211.42;  701.887;  627.444;  674.338;74.44266
 212.02;  644.171;  599.775;  642.440;44.39596
 212.62;  640.344;  598.110;  627.206;42.23426
 213.22;  605.008;  582.778;  621.449;22.23065
 213.82;  644.618;  597.443;  645.152;47.17543
 214.42;  638.473;  588.108;  640.775;50.36530
 215.02;  662.739;  602.108;  646.016;60.63003
 215.62;  658.928;  621.777;  642.434;37.15095
 216.22;  696.627;  669.445;  709.679;27.18168
 216.82;  669.358;  648.112;  669.042;21.24543
 217.42;  668.153;  648.779;  687.492;19.37412
 218.02;  653.575;  636.446;  660.573;17.12903
 218.62;  674.905;  660.446;  709.570;14.45869
 219.21;  623.794;  607.779;  653.136;16.01505
 219.81;  583.461;  558.445;  612.195;25.01623
 220.41;  567.487;  527.445;  584.552;40.04196
 221.01;  600.378;  557.779;  618.090;42.59958
 221.61;  637.107;  589.779;  628.480;47.32875
 222.21;  632.934;  601.445;  608.989;31.48928
 222.81;  625.646;  574.778;  566.755;50.86791
 223.41;  590.386;  556.111;  547.155;34.27478
 224.01;  652.763;  620.445;  623.137;32.31772
 224.61;  671.520;  631.779;  660.856;39.74054
 225.20;  660.783;  616.778;  657.851;44.00520
 225.80;  651.241;  605.444;  660.052;45.79680
 226.40;  639.331;  615.444;  656.438;23.88629
 227.00;  647.566;  611.779;  660.261;35.78709
 227.60;  570.672;  539.447;  567.573;31.22470
 228.20;  608.338;  571.448;  623.181;36.89019
 228.80;  612.584;  575.113;  621.885;37.47097
 229.40;  657.259;  616.111;  662.010;41.14734
 229.99;  593.585;  550.111;  576.670;43.47332
 230.59;  596.775;  563.113;  583.060;33.66216
 231.19;  634.619;  601.114;  626.828;33.50413
 231.79;  684.389;  650.445;  681.100;33.94394
 232.39;  685.018;  649.110;  670.879;35.90828
 232.99;  683.296;  642.110;  655.495;41.18646
 233.59;  606.044;  577.776;  584.902;28.26735
 234.18;  625.537;  578.776;  621.078;46.76121
 234.78;  647.178;  589.444;  648.995;57.73429
 235.38;  675.207;  610.112;  689.237;65.09469
 235.98;  671.181;  613.780;  683.488;57.40111
 236.58;  634.551;  604.445;  661.581;30.10572
 237.18;  653.335;  619.109;  652.893;34.22565
 237.77;  656.137;  646.441;  672.497; 9.69613
 238.37;  656.092;  627.442;  653.005;28.64966
 238.97;  615.268;  601.110;  614.107;14.15830
 239.57;  556.798;  542.441;  536.463;14.35670
 240.17;  523.064;  517.105;  520.882; 5.95829
 240.76;  560.841;  546.105;  558.708;14.73643
 241.36;  581.545;  569.438;  573.742;12.10653
 241.96;  607.477;  596.104;  597.709;11.37243
 242.56;  705.907;  695.435;  703.307;10.47156
 243.16;  737.697;  713.433;  734.901;24.26433
 243.76;  741.856;  706.099;  724.771;35.75695
 244.35;  636.959;  604.432;  617.924;32.52774
 244.95;  636.035;  591.766;  611.630;44.26919
 245.55;  611.500;  570.100;  589.358;41.40038
 246.15;  612.263;  573.767;  589.779;38.49597
 246.74;  617.133;  585.435;  598.877;31.69827
 247.34;  639.325;  607.769;  620.718;31.55612
 247.94;  607.266;  594.101;  600.056;13.16514
 248.54;  558.330;  553.768;  562.752; 4.56223
 249.14;  545.017;  535.768;  575.134; 9.24970
 249.73;  612.496;  585.103;  635.511;27.39317
 250.33;  637.384;  595.106;  660.840;42.27816
 250.93;  678.648;  640.775;  686.297;37.87387
 251.53;  642.600;  593.776;  649.468;48.82371
 252.12;  655.683;  610.777;  660.848;44.90585
 252.72;  601.629;  555.444;  614.103;46.18528
 253.32;  622.708;  593.112;  644.420;29.59590
 253.92;  573.879;  555.778;  608.272;18.10079
 254.51;  588.642;  571.110;  628.811;17.53208
 255.11;  563.742;  533.776;  592.627;29.96586
 255.71;  585.392;  553.443;  598.583;31.94872
 256.31;  577.664;  548.111;  567.438;29.55296
 256.90;  528.781;  518.112;  540.153;10.66944
 257.50;  567.868;  555.111;  582.988;12.75760
 258.10;  576.827;  569.775;  617.097; 7.05160
 258.69;  618.543;  589.442;  625.505;29.10182
 259.29;  580.357;  560.776;  600.247;19.58105
 259.89;  571.459;  545.111;  581.556;26.34831
 260.49;  549.964;  525.778;  587.349;24.18536
 261.08;  562.366;  535.777;  590.833;26.58848
 261.68;  575.672;  539.109;  597.563;36.56267
 262.28;  608.510;  581.442;  619.808;27.06873
 262.87;  611.632;  577.107;  618.645;34.52458
 263.47;  571.402;  532.108;  572.072;39.29419
 264.07;  552.635;  516.443;  563.197;36.19257
 264.67;  547.395;  505.443;  536.919;41.95240
 265.26;  578.278;  541.775;  574.204;36.50259
 265.86;  598.808;  554.776;  591.021;44.03204
 266.46;  624.451;  556.110;  617.303;68.34088
 267.05;  625.685;  561.775;  607.664;63.91063
 267.65;  604.701;  535.106;  562.462;69.59436
 268.25;  556.106;  522.106;  538.557;33.99998
 268.84;  526.953;  497.105;  512.448;29.84798
 269.44;  523.911;  492.437;  521.831;31.47413
 270.04;  559.013;  511.770;  539.953;47.24250
 270.63;  611.263;  557.771;  600.181;53.49252
 271.23;  632.781;  589.770;  613.408;43.01087
 271.83;  618.485;  586.102;  608.893;32.38332
 272.42;  576.118;  564.435;  577.863;11.68356
 273.02;  557.159;  528.769;  555.508;28.38949
 273.62;  532.142;  503.103;  531.130;29.03903
 274.21;  532.118;  489.770;  514.411;42.34788
 274.81;  527.209;  484.769;  515.916;42.43972
 275.41;  542.249;  483.101;  524.345;59.14800
 276.00;  539.216;  492.101;  550.648;47.11491
 276.60;  553.508;  525.767;  568.698;27.74106
 277.20;  561.373;  547.100;  568.546;14.27294
 277.79;  563.402;  541.102;  559.788;22.30000
 278.39;  569.495;  544.434;  567.324;25.06094
 278.98;  589.249;  552.432;  602.884;36.81695
 279.58;  582.277;  560.767;  607.459;21.51068
 280.18;  559.299;  544.102;  591.028;15.19705
 280.77;  560.468;  555.769;  588.182; 4.69952
 281.37;  544.072;  528.769;  565.125;15.30368
 281.96;  604.338;  556.101;  600.092;48.23625
 282.56;  618.712;  582.102;  616.463;36.61002
 283.16;  672.161;  613.769;  647.539;58.39192
 283.75;  617.947;  584.768;  593.011;33.17867
 284.35;  594.124;  546.767;  557.290;47.35751
 284.94;  618.683;  589.099;  599.280;29.58414
 285.54;  637.966;  604.766;  637.205;33.20059
 286.14;  747.411;  695.768;  732.159;51.64312
 286.73;  745.298;  691.770;  708.243;53.52803
 287.33;  765.552;  726.104;  711.141;39.44839
 287.92;  689.039;  653.437;  651.643;35.60157
 288.52;  709.324;  646.103;  665.992;63.22161
 289.12;  661.767;  593.767;  637.905;67.99969
 289.71;  613.535;  581.100;  609.086;32.43589
 290.31;  596.934;  577.435;  605.695;19.49972
 290.90;  607.403;  577.103;  630.034;30.30007
 291.50;  587.971;  537.436;  609.003;50.53531
 292.09;  555.634;  504.102;  561.666;51.53164
 292.69;  550.910;  500.437;  531.859;50.47288
 293.28;  577.873;  527.103;  548.884;50.77062
 293.88;  522.155;  484.768;  504.897;37.38699
 294.48;  549.367;  528.768;  549.119;20.59900
 295.07;  554.058;  552.767;  577.230; 1.29133
 295.67;  580.305;  582.434;  626.788;-2.12900
 296.26;  549.762;  519.103;  569.058;30.65915
 296.86;  494.650;  462.104;  480.867;32.54524
 297.45;  518.151;  486.103;  495.167;32.04881
 298.05;  560.778;  528.101;  536.249;32.67738
 298.64;  618.143;  580.101;  613.248;38.04138
 299.24;  593.069;  565.102;  584.455;27.96667
 299.83;  569.886;  566.769;  574.259; 3.11741
 300.43;  565.494;  560.769;  544.539; 4.72525
 301.02;  600.872;  594.435;  593.246; 6.43604
 301.62;  597.947;  584.435;  600.011;13.51200
 302.21;  552.795;  539.768;  586.234;13.02667
 302.81;  553.773;  529.100;  572.940;24.67246
 303.40;  545.219;  517.433;  561.072;27.78519
 304.00;  581.349;  571.434;  593.162; 9.91512
 304.59;  571.275;  549.101;  574.761;22.17492
 305.19;  650.268;  621.435;  658.029;28.83305
 305.78;  653.663;  602.770;  640.967;50.89321
 306.38;  717.812;  676.437;  710.740;41.37486
 306.97;  655.835;  596.769;  628.212;59.06594
 307.57;  649.259;  580.433;  646.501;68.82680
 308.16;  581.473;  492.431;  566.814;89.04241
 308.76;  609.442;  554.431;  634.423;55.01057
 309.35;  658.680;  617.765;  653.669;40.91497
 309.95;  622.218;  611.430;  636.944;10.78747
 310.54;  595.799;  577.098;  591.141;18.70172
 311.14;  660.215;  621.101;  666.676;39.11367
 311.73;  699.704;  672.769;  708.063;26.93483
 312.33;  696.437;  679.101;  714.575;17.33670
 312.92;  591.977;  607.434;  624.097;-15.45741
 313.52;  575.100;  580.102;  608.787;-5.00267
 314.11;  568.619;  578.768;  590.045;-10.14856
 314.70;  590.395;  587.768;  593.174; 2.62716
 315.30;  633.151;  603.769;  620.501;29.38214
 315.89;  592.891;  536.103;  565.175;56.78784
 316.49;  596.871;  533.103;  549.520;63.76820
 317.08;  559.488;  499.769;  507.504;59.71915
 317.68;  592.580;  540.103;  557.921;52.47773
 318.27;  553.037;  510.102;  558.063;42.93483
 318.86;  547.146;  508.102;  561.859;39.04388
 319.46;  544.831;  518.102;  576.209;26.72893
 320.05;  546.137;  518.769;  561.821;27.36743
 320.65;  545.620;  521.767;  549.105;23.85261
 321.24;  551.520;  532.764;  554.886;18.75563
 321.83;  576.063;  547.763;  593.803;28.29971
 322.43;  592.948;  545.432;  609.914;47.51671
 323.02;  586.228;  515.100;  583.384;71.12712
 323.62;  624.396;  555.436;  608.420;68.96057
 324.21;  688.591;  624.104;  663.206;64.48759
 324.80;  654.838;  622.770;  637.156;32.06844
 325.40;  584.538;  553.435;  584.579;31.10271
 325.99;  478.800;  456.435;  500.210;22.36493
 326.59;  496.216;  468.769;  515.256;27.44707
 327.18;  517.912;  499.770;  521.557;18.14197
 327.77;  537.555;  537.103;  532.565; 0.45200
 328.37;  543.247;  519.103;  533.255;24.14440
 328.96;  553.280;  512.104;  530.559;41.17632
 329.55;  597.407;  542.104;  585.645;55.30258
 330.15;  624.004;  572.770;  601.641;51.23390
 330.74;  608.203;  550.768;  580.274;57.43479
 331.34;  547.663;  505.102;  526.360;42.56105
 331.93;  519.085;  480.437;  500.715;38.64812
 332.52;  479.107;  455.437;  480.068;23.67018
 333.12;  519.031;  490.104;  496.636;28.92755
 333.71;  508.453;  484.438;  509.991;24.01461
 334.30;  506.025;  474.106;  503.817;31.91909
 334.90;  460.014;  413.106;  471.140;46.90806
 335.49;  459.698;  395.105;  454.577;64.59304
 336.08;  507.370;  434.437;  478.278;72.93248
 336.68;  552.583;  496.438;  532.140;56.14573
 337.27;  555.558;  522.771;  561.116;32.78666
 337.86;  599.788;  574.438;  632.689;25.35037
 338.46;  601.532;  568.770;  619.152;32.76210
 339.05;  629.248;  595.104;  626.834;34.14448
 339.64;  585.541;  546.772;  573.679;38.76834
 340.24;  544.605;  486.439;  541.101;58.16661
 340.83;  535.033;  472.772;  514.883;62.26095
 341.42;  535.747;  487.106;  533.534;48.64091
 342.01;  602.050;  552.440;  577.781;49.61032
 342.61;  638.601;  585.108;  615.253;53.49274
 343.20;  596.043;  557.774;  567.049;38.26845
 343.79;  582.982;  561.441;  563.630;21.54053
 344.39;  583.128;  538.445;  565.195;44.68289
 344.98;  630.546;  576.445;  600.272;54.10079
 345.57;  605.036;  559.443;  569.229;45.59333
 346.16;  600.671;  567.111;  558.779;33.56031
 346.76;  592.498;  534.112;  548.228;58.38633
 347.35;  575.691;  510.778;  547.767;64.91328
 347.94;  525.631;  449.778;  492.408;75.85320
 348.54;  531.517;  464.110;  496.697;67.40707
 349.13;  540.327;  461.777;  497.828;78.55046
 349.72;  561.043;  499.445;  539.784;61.59833
 350.31;  532.433;  477.779;  522.807;54.65473
 350.91;  552.730;  517.444;  552.499;35.28581
 351.50;  549.272;  510.444;  545.051;38.82746
 352.09;  533.678;  503.112;  523.393;30.56649
 352.68;  499.954;  471.779;  490.311;28.17558
 353.28;  464.524;  457.778;  479.252; 6.74540
 353.87;  465.960;  443.778;  500.072;22.18286
 354.46;  477.609;  453.778;  501.055;23.83114
 355.05;  516.711;  468.779;  501.697;47.93173
 355.65;  575.578;  522.447;  547.517;53.13153
 356.24;  613.201;  545.446;  576.869;67.75525
 356.83;  624.359;  572.446;  594.347;51.91335
 357.42;  588.958;  543.446;  583.589;45.51141
 358.01;  576.793;  567.448;  605.291; 9.34485
 358.61;  567.334;  522.117;  591.726;45.21749
 359.20;  583.670;  540.115;  592.483;43.55443
 359.79;  573.773;  493.115;  546.636;80.65855
 360.38;  592.001;  525.448;  580.844;66.55318
 360.97;  587.723;  540.116;  589.169;47.60715
 361.57;  533.177;  509.450;  553.220;23.72731
 362.16;  485.144;  471.117;  507.190;14.02755
 362.75;  448.330;  422.450;  450.389;25.88048
 363.34;  498.999;  445.783;  497.087;53.21624
 363.93;  508.077;  465.780;  529.335;42.29698
 364.53;  583.962;  504.444;  580.103;79.51862
 365.12;  569.815;  508.109;  576.361;61.70606
 365.71;  588.193;  503.776;  566.068;84.41685
 366.30;  622.427;  560.776;  607.977;61.65091
 366.89;  662.112;  587.442;  630.387;74.67047
 367.48;  690.000;  624.775;  640.255;65.22440
 368.08;  638.533;  583.778;  621.290;54.75518
 368.67;  719.441;  654.779;  716.480;64.66208
 369.26;  743.253;  656.446;  751.916;86.80673
 369.85;  742.206;  663.782;  746.667;78.42331
 370.44;  625.200;  560.449;  627.966;64.75054
 371.03;  619.175;  554.114;  622.394;65.06050
 371.62;  641.611;  559.114;  624.547;82.49795
 372.22;  699.518;  604.779;  672.884;94.73930
 372.81;  681.060;  591.111;  635.829;89.94880
 373.40;  645.107;  532.112;  597.147;112.99542
 373.99;  601.252;  498.113;  556.857;103.13888
 374.58;  606.711;  513.113;  610.364;93.59840
 375.17;  635.802;  540.443;  625.653;95.35927
 375.76;  690.029;  587.777;  692.497;102.25147
 376.35;  677.790;  547.114;  660.681;130.67569
 376.95;  655.482;  544.114;  662.037;111.36809
 377.54;  676.288;  534.112;  664.311;142.17558
 378.13;  700.769;  557.778;  674.505;142.99049
 378.72;  727.907;  558.112;  692.601;169.79445
 379.31;  692.794;  506.448;  630.351;186.34603
 379.90;  723.204;  523.449;  659.636;199.75422
 380.49;  728.997;  515.116;  654.782;213.88166
 381.08;  744.771;  517.782;  691.605;226.98946
 381.67;  759.942;  524.781;  709.124;235.16102
 382.26;  823.432;  558.448;  776.296;264.98453
 382.86;  901.815;  613.448;  868.645;288.36691
 383.45;  906.171;  584.448;  859.724;321.72348
 384.04;  897.608;  563.778;  840.662;333.82996
 384.63;  864.513;  551.445;  805.242;313.06770
 385.22;  883.627;  555.779;  824.953;327.84717
 385.81;  870.188;  518.446;  819.161;351.74179
 386.40;  906.263;  497.780;  826.867;408.48325
 386.99;  915.726;  454.779;  829.044;460.94644
 387.58;  966.314;  478.777;  885.120;487.53700
 388.17;  980.432;  454.443;  902.619;525.98917
 388.76; 1053.515;  503.777;  981.999;549.73797
 389.35; 1088.791;  494.111;  956.584;594.68039
 389.94; 1154.064;  541.778; 1048.832;612.28581
 390.53; 1191.888;  571.108; 1091.515;620.77952
 391.12; 1201.267;  554.102; 1137.636;647.16521
 391.71; 1223.112;  528.765; 1128.426;694.34758
 392.30; 1263.196;  489.764; 1131.590;773.43208
 392.89; 1372.137;  521.092; 1217.527;851.04455
 393.48; 1395.134;  523.750; 1218.143;871.38472
 394.07; 1485.548;  592.740; 1313.197;892.80821
 394.66; 1536.170;  655.395; 1380.617;880.77446
 395.25; 1573.167;  630.048; 1449.557;943.11927
 395.84; 1504.913;  519.032; 1416.022;985.88066
 396.43; 1466.284;  423.681; 1384.322;1042.60388
 397.02; 1508.223;  454.661; 1416.590;1053.56234
 397.61; 1627.610;  505.306; 1485.081;1122.30381
 398.20; 1703.589;  544.616; 1557.984;1158.97285
 398.79; 1851.001;  618.597; 1658.380;1232.40433
 399.38; 1846.546;  594.249; 1669.574;1252.29692
 399.97; 1931.131;  599.570; 1702.352;1331.56091
 400.56; 1859.561;  491.562; 1669.000;1367.99917
 401.15; 1953.379;  504.561; 1744.530;1448.81777
 401.74; 2001.690;  502.900; 1839.460;1498.78989
 402.33; 2146.172;  543.245; 1975.801;1602.92660
 402.92; 2255.964;  538.599; 2033.229;1717.36521
 403.51; 2349.271;  539.954; 2115.400;1809.31741
 404.10; 2463.978;  537.304; 2187.955;1926.67375
 404.69; 2557.159;  574.983; 2305.267;1982.17570
 405.28; 2679.015;  535.991; 2377.635;2143.02414
 405.87; 2806.605;  504.327; 2506.026;2302.27799
 406.46; 2955.619;  498.994; 2672.647;2456.62484
 407.05; 3107.263;  506.325; 2836.107;2600.93723
 407.64; 3262.581;  509.655; 2982.358;2752.92597
 408.23; 3469.110;  490.986; 3109.046;2978.12437
 408.82; 3754.988;  538.320; 3313.876;3216.66853
 409.41; 3925.149;  530.990; 3467.454;3394.15893
 410.00; 4118.018;  526.659; 3701.520;3591.35880
 410.59; 4321.049;  489.659; 3843.245;3831.39063
 411.18; 4572.870;  496.325; 4050.053;4076.54507
 411.76; 4780.425;  462.657; 4211.706;4317.76802
 412.35; 5094.169;  497.657; 4527.110;4596.51190
 412.94; 5411.982;  510.327; 4824.733;4901.65543
 413.53; 5814.750;  533.662; 5114.737;5281.08812
 414.12; 6189.826;  484.999; 5371.904;5704.82729
 414.71; 6781.870;  481.336; 5724.680;6300.53462
 415.30; 7351.852;  447.002; 6226.996;6904.84957
 415.89; 8162.769;  472.002; 6849.950;7690.76742
 416.48; 8934.983;  566.335; 7551.538;8368.64852
 417.07; 9576.646;  631.335; 8130.868;8945.31152
 417.65; 9996.673;  610.337; 8636.078;9386.33615
 418.24;10492.796;  551.339; 9044.043;9941.45637
 418.83;11008.513;  532.340; 9413.697;10476.17333
 419.42;11534.475;  538.007; 9742.299;10996.46748
 420.01;12054.100;  485.675;10025.144;11568.42468
 420.60;12553.818;  496.011;10283.073;12057.80713
 421.19;12845.125;  522.677;10475.383;12322.44806
 421.78;12922.330;  561.344;10619.265;12360.98605
 422.36;12816.733;  538.677;10739.329;12278.05590
 422.95;12744.724;  545.010;10800.017;12199.71397
 423.54;12691.534;  530.678;10912.422;12160.85618
 424.13;12844.533;  567.346;10971.304;12277.18716
 424.72;12900.426;  568.014;10959.755;12332.41152
 425.31;13129.484;  570.017;11048.298;12559.46682
 425.89;13316.253;  533.351;11163.332;12782.90192
 426.48;13527.456;  491.017;11435.302;13036.43982
 427.07;13475.586;  447.348;11494.264;13028.23871
 427.66;13526.367;  500.347;11800.093;13026.02053
 428.25;13714.888;  524.016;12084.087;13190.87118
 428.84;14086.535;  586.352;12479.893;13500.18260
 429.42;14328.864;  521.020;12653.830;13807.84442
 430.01;14580.928;  545.020;12903.860;14035.90817
 430.60;14886.830;  545.021;13185.015;14341.80898
 431.19;15313.900;  557.690;13601.961;14756.20981
 431.78;15705.262;  543.692;13918.203;15161.57020
 432.36;15973.482;  568.360;14212.952;15405.12178
 432.95;16165.327;  574.361;14532.086;15590.96618
 433.54;16449.788;  631.027;14965.624;15818.76147
 434.13;16683.908;  555.359;15230.821;16128.54938
 434.72;16898.381;  521.692;15434.616;16376.68910
 435.30;17181.114;  524.027;15619.950;16657.08745
 435.89;17274.899;  549.027;15977.391;16725.87177
 436.48;17643.819;  557.360;16364.622;17086.45880
 437.07;18158.028;  452.696;16561.696;17705.33267
 437.66;18838.854;  433.698;16749.027;18405.15634
 438.24;19090.046;  478.033;16852.142;18612.01303
 438.83;19187.675;  542.033;17214.050;18645.64174
 439.42;19404.355;  551.701;17449.365;18852.65403
 440.01;20021.568;  546.700;17721.619;19474.86846
 440.59;20345.381;  620.366;17964.781;19725.01427
 441.18;20664.655;  649.700;18310.335;20014.95426
 441.77;20880.855;  627.035;18516.763;20253.81956
 442.36;21186.853;  520.702;18620.731;20666.15046
 442.94;21326.650;  433.036;18706.821;20893.61373
 443.53;21632.598;  437.372;18989.596;21195.22539
 444.12;22001.857;  431.373;19333.804;21570.48402
 444.70;22301.885;  492.038;19781.584;21809.84668
 445.29;22331.791;  516.705;20089.469;21815.08567
 445.88;22635.770;  508.708;20302.577;22127.06133
 446.47;23266.296;  496.711;20580.272;22769.58475
 447.05;23815.343;  493.044;20987.649;23322.29922
 447.64;24164.170;  499.377;21295.824;23664.79308
 448.23;24278.428;  535.044;21513.726;23743.38379
 448.81;24725.588;  517.711;21835.568;24207.87764
 449.40;24887.539;  553.711;22313.160;24333.82742
 449.99;25559.022;  539.381;22762.120;25019.64130
 450.58;25709.220;  578.716;22937.850;25130.50416
 451.16;25936.021;  562.049;23249.669;25373.97227
 451.75;26030.428;  565.382;23311.402;25465.04582
 452.34;26657.725;  540.049;23432.036;26117.67571
 452.92;27030.631;  560.715;23515.980;26469.91588
 453.51;27092.655;  518.383;23905.579;26574.27134
 454.10;26995.927;  526.051;24454.435;26469.87558
 454.68;27680.774;  496.385;24789.933;27184.38907
 455.27;27879.335;  494.386;24853.082;27384.94919
 455.86;28467.843;  474.054;24772.819;27993.78873
 456.44;28476.470;  445.722;24809.362;28030.74836
 457.03;28763.886;  481.389;25059.741;28282.49717
 457.62;28690.293;  483.723;25205.475;28206.57071
 458.20;28613.820;  479.389;25464.681;28134.43098
 458.79;29459.836;  436.056;25830.333;29023.78027
 459.38;29695.680;  442.057;26369.102;29253.62225
 459.96;30454.788;  508.391;27035.171;29946.39680
 460.55;30456.280;  570.725;27463.982;29885.55489
 461.13;30932.379;  530.391;27557.073;30401.98749
 461.72;30854.093;  471.392;27295.057;30382.70078
 462.31;30805.643;  413.060;27230.196;30392.58320
 462.89;31242.494;  471.727;27676.364;30770.76704
 463.48;31845.304;  481.727;28258.162;31363.57710
 464.07;32192.516;  491.727;28530.051;31700.78910
 464.65;32156.006;  478.060;28743.890;31677.94595
 465.24;32852.588;  533.394;29021.420;32319.19354
 465.82;33615.340;  580.063;29213.351;33035.27700
 466.41;34170.806;  577.065;29306.354;33593.74034
 467.00;33814.889;  542.731;29247.518;33272.15817
 467.58;33854.646;  538.396;29597.022;33316.25001
 468.17;34054.185;  556.064;29983.484;33498.12140
 468.75;34474.415;  531.399;30137.939;33943.01610
 469.34;34604.571;  501.400;30161.993;34103.17059
 469.93;34646.445;  453.069;30029.427;34193.37657
 470.51;35058.229;  431.070;30127.142;34627.15971
 471.10;35521.404;  510.403;30314.664;35011.00161
 471.68;35288.458;  534.736;30657.742;34753.72218
 472.27;34853.537;  593.735;30874.511;34259.80181
 472.85;34456.818;  599.734;31149.884;33857.08360
 473.44;34601.869;  560.067;30683.931;34041.80174
 474.02;34420.707;  531.069;30627.999;33889.63761
 474.61;34238.211;  463.735;30616.184;33774.47584
 475.20;34021.736;  498.401;31127.418;33523.33487
 475.78;34028.329;  465.402;31058.292;33562.92683
 476.37;33823.417;  451.072;30645.861;33372.34487
 476.95;34256.234;  480.074;30421.547;33776.15993
 477.54;34322.365;  480.406;30450.089;33841.95889
 478.12;34341.845;  460.407;30318.830;33881.43811
 478.71;34188.667;  421.076;30373.492;33767.59143
 479.29;34207.657;  469.742;30377.874;33737.91491
 479.88;34199.408;  525.408;30756.952;33673.99948
 480.46;34209.616;  550.409;30762.112;33659.20662
 481.05;34096.740;  539.740;30692.705;33556.99940
 481.63;34190.814;  481.406;30407.498;33709.40745
 482.22;33949.397;  421.074;30092.334;33528.32296
 482.80;33881.139;  437.075;30314.040;33444.06441
 483.39;33846.480;  447.742;30103.654;33398.73725
 483.97;33781.995;  474.411;30142.065;33307.58415
 484.56;33748.971;  467.744;29545.347;33281.22633
 485.14;33501.042;  498.745;29407.716;33002.29744
 485.73;33133.180;  500.080;29079.420;32633.10022
 486.31;32953.597;  504.747;29024.105;32448.85027
 486.90;32817.474;  488.081;28892.296;32329.39318
 487.48;32379.570;  481.414;28282.383;31898.15544
 488.07;31807.977;  441.080;27880.843;31366.89682
 488.65;30990.072;  464.411;27412.743;30525.66018
 489.24;30595.453;  498.078;27220.120;30097.37465
 489.82;29933.349;  482.413;26639.241;29450.93602
 490.41;29783.311;  499.079;26195.902;29284.23132
 490.99;29381.556;  484.746;25874.155;28896.80975
 491.57;29073.675;  535.747;25518.508;28537.92748
 492.16;28804.592;  530.748;25039.737;28273.84417
 492.74;28383.043;  549.081;24590.177;27833.96182
 493.33;27866.785;  561.416;24136.157;27305.36877
 493.91;26975.261;  575.418;23705.837;26399.84314
 494.50;26428.235;  542.085;23136.754;25886.14956
 495.08;26044.445;  533.418;22766.338;25511.02697
 495.66;25568.452;  492.085;22485.011;25076.36766
 496.25;25073.576;  487.085;22217.761;24586.49024
 496.83;24625.833;  448.086;21732.662;24177.74762
 497.42;24318.371;  438.752;21241.545;23879.61893
 498.00;23753.791;  439.085;20803.653;23314.70592
 498.59;22953.268;  464.420;20584.392;22488.84814
 499.17;22317.369;  470.420;20334.455;21846.94865
 499.75;22351.344;  489.418;20111.216;21861.92528
 500.34;22142.900;  465.417;19489.841;21677.48281
 500.92;21757.677;  437.085;18929.549;21320.59194
 501.50;20905.238;  447.754;18372.306;20457.48421
 502.09;20331.594;  422.756;18144.513;19908.83850
 502.67;19964.057;  456.089;17792.964;19507.96719
 503.26;19713.475;  464.089;17358.100;19249.38626
 503.84;19320.066;  540.756;16861.276;18779.30913
 504.42;18878.929;  546.757;16487.093;18332.17191
 505.01;18471.753;  548.423;16269.657;17923.32994
 505.59;18276.751;  513.757;16034.626;17762.99417
 506.17;17890.398;  497.092;15777.432;17393.30559
 506.76;17531.453;  507.428;15526.697;17024.02506
 507.34;17072.631;  505.094;15267.223;16567.53730
 507.93;16842.123;  501.427;15092.427;16340.69658
 508.51;16663.315;  450.093;14917.660;16213.22228
 509.09;16577.332;  416.426;14740.038;16160.90608
 509.68;16420.938;  434.759;14576.953;15986.17816
 510.26;16064.407;  512.093;14267.411;15552.31420
 510.84;15740.810;  520.760;13935.475;15220.05072
 511.43;15493.392;  499.094;13360.005;14994.29831
 512.01;15399.107;  478.427;13092.049;14920.67944
 512.59;15068.070;  511.094;12925.682;14556.97601
 513.17;14816.152;  511.094;12936.061;14305.05815
 513.76;14614.740;  483.428;12803.626;14131.31184
 514.34;14206.545;  486.428;12800.115;13720.11698
 514.92;13850.189;  516.094;12819.428;13334.09492
 515.51;13765.675;  497.762;12649.871;13267.91358
 516.09;14062.213;  505.762;12370.694;13556.45038
 516.67;14275.706;  506.096;12029.477;13769.60973
 517.26;13965.419;  572.095;11958.275;13393.32412
 517.84;13704.136;  577.761;11783.683;13126.37435
 518.42;13455.809;  551.764;11635.846;12904.04484
 519.00;13079.326;  509.099;11360.895;12570.22632
 519.59;12885.631;  567.765;11215.900;12317.86600
 520.17;12509.363;  572.764;11316.380;11936.59878
 520.75;12356.613;  551.765;11383.275;11804.84879
 521.33;12087.044;  469.431;11265.394;11617.61348
 521.92;11915.886;  476.097;10946.642;11439.78989
 522.50;12118.759;  466.763;10811.830;11651.99579
 523.08;12007.383;  462.098;10814.036;11545.28508
 523.67;12034.863;  421.766;10897.444;11613.09763
 524.25;11838.005;  463.766;10755.270;11374.23978
 524.83;12074.718;  436.432;10658.008;11638.28633
 525.41;12181.661;  515.099;10555.260;11666.56208
 525.99;11980.307;  460.099;10576.212;11520.20794
 526.58;11691.401;  438.433;10625.268;11252.96777
 527.16;11531.557;  398.767;10728.047;11132.79011
 527.74;11768.876;  429.766;10798.093;11339.10992
 528.32;11907.090;  526.432;10852.347;11380.65767
 528.91;12005.252;  502.767;10760.769;11502.48494
 529.49;11987.981;  554.101;10835.100;11433.87961
 530.07;12086.700;  533.768;10729.119;11552.93233
 530.65;12117.011;  570.102;10749.040;11546.90909
 531.23;12126.444;  535.104;10652.346;11591.33934
 531.82;11932.823;  553.105;10751.358;11379.71805
 532.40;11847.293;  534.103;10817.934;11313.18977
 532.98;11799.148;  519.768;10861.890;11279.37964
 533.56;11864.424;  486.768;10857.867;11377.65657
 534.14;11837.765;  497.101;10855.541;11340.66393
 534.73;11714.883;  469.435;10692.315;11245.44825
 535.31;11916.682;  487.768;10679.436;11428.91394
 535.89;12027.932;  460.768;10607.997;11567.16396
 536.47;12100.398;  550.436;10913.392;11549.96182
 537.05;12099.039;  513.770;11030.310;11585.26824
 537.63;12200.921;  511.104;11207.202;11689.81725
 538.22;12441.614;  449.436;11258.285;11992.17749
 538.80;12634.797;  479.770;11363.060;12155.02682
 539.38;13000.662;  462.772;11312.123;12537.88968
 539.96;13194.196;  484.439;11396.669;12709.75731
 540.54;13207.271;  461.771;11546.855;12745.49987
 541.12;13144.070;  486.770;11629.701;12657.30007
 541.70;13342.057;  523.438;11807.267;12818.61878
 542.29;13379.534;  511.771;11915.732;12867.76217
 542.87;13225.127;  490.105;12174.664;12735.02197
 543.45;13189.570;  408.107;12184.980;12781.46325
 544.03;13541.400;  486.441;12235.100;13054.95961
 544.61;14258.471;  585.438;12449.008;13673.03300
 545.19;14385.543;  625.437;12599.829;13760.10646
 545.77;14052.498;  550.772;12671.337;13501.72665
 546.35;13908.434;  474.439;12667.249;13433.99505
 546.93;14225.467;  451.106;12669.945;13774.36148
 547.52;15106.822;  529.106;12842.906;14577.71569
 548.10;14940.719;  506.440;13008.812;14434.27941
 548.68;14773.457;  521.773;13200.515;14251.68385
 549.26;14370.466;  426.441;13315.494;13944.02579
 549.84;14643.187;  457.440;13390.572;14185.74636
 550.42;15079.557;  458.440;13694.606;14621.11646
 551.00;15346.078;  486.441;13741.777;14859.63731
 551.58;15513.232;  513.442;13748.192;14999.79055
 552.16;15300.247;  536.442;13566.205;14763.80526
 552.74;15034.540;  545.774;13858.561;14488.76599
 553.32;15105.601;  495.441;14112.920;14610.15940
 553.90;15548.361;  500.776;14375.584;15047.58473
 554.48;15802.180;  478.443;14244.027;15323.73672
 555.06;15992.635;  484.775;14295.922;15507.86041
 555.64;16176.030;  480.107;14390.733;15695.92284
 556.23;16606.586;  510.775;14514.181;16095.81018
 556.81;16771.768;  504.109;14643.317;16267.65826
 557.39;16736.759;  438.775;14657.064;16297.98417
 557.97;16722.312;  431.440;14987.686;16290.87136
 558.55;16685.083;  445.108;15114.752;16239.97556
 559.13;16873.476;  491.777;15264.993;16381.69996
 559.71;17003.338;  481.777;15197.504;16521.56149
 560.29;17145.296;  507.775;15428.554;16637.52097
 560.87;17114.624;  525.443;15393.853;16589.18153
 561.45;17432.896;  548.110;15488.709;16884.78577
 562.03;17880.122;  565.444;15509.553;17314.67797
 562.61;18233.867;  538.444;15763.682;17695.42302
 563.19;18100.302;  504.776;15991.530;17595.52590
 563.77;17900.013;  476.109;16058.570;17423.90335
 564.35;18061.759;  458.109;16349.339;17603.64966
 564.93;18350.631;  478.109;16610.193;17872.52222
 565.51;18784.432;  495.443;16841.286;18288.98917
 566.09;18928.125;  529.442;16940.369;18398.68275
 566.67;18977.105;  530.441;16886.439;18446.66429
 567.25;18840.742;  498.108;16992.746;18342.63488
 567.83;18960.979;  511.443;17170.207;18449.53693
 568.40;19137.476;  488.111;17357.934;18649.36545
 568.98;19675.745;  517.779;17287.787;19157.96600
 569.56;19981.297;  486.112;17346.016;19495.18536
 570.14;20044.191;  508.110;17465.037;19536.08108
 570.72;19917.158;  502.109;17616.066;19415.04917
 571.30;19727.735;  521.775;17804.346;19205.95968
 571.88;20210.534;  496.441;18031.193;19714.09322
 572.46;20316.674;  472.442;18416.261;19844.23176
 573.04;20632.938;  465.444;18596.385;20167.49413
 573.62;20571.916;  507.778;18852.031;20064.13874
 574.20;20934.177;  483.109;19035.749;20451.06756
 574.78;21179.206;  453.110;19242.717;20726.09579
 575.36;21285.135;  442.445;19215.535;20842.69025
 575.94;21069.489;  523.445;19347.249;20546.04439
 576.52;21027.255;  505.444;19268.733;20521.81151
 577.09;21271.744;  535.776;19247.266;20735.96711
 577.67;21486.278;  458.776;19032.479;21027.50141
 578.25;21626.843;  467.443;19031.023;21159.39971
 578.83;21615.489;  422.110;19388.642;21193.37890
 579.41;22110.565;  462.442;19948.799;21648.12270
 579.99;22326.188;  459.442;20267.152;21866.74643
 580.57;22971.959;  485.443;20249.492;22486.51612
 581.15;23976.279;  471.110;20145.451;23505.16933
 581.73;24500.484;  541.776;20368.059;23958.70848
 582.30;24578.009;  528.108;20488.959;24049.90085
 582.88;23794.766;  601.442;20661.012;23193.32368
 583.46;23702.031;  566.443;20679.254;23135.58840
 584.04;23854.447;  583.776;20886.025;23270.67172
 584.62;24480.405;  559.110;21182.565;23921.29433
 585.20;24971.471;  534.444;21448.566;24437.02601
 585.78;25111.134;  475.109;21786.681;24636.02469
 586.35;24630.974;  408.108;21683.290;24222.86651
 586.93;24128.342;  400.776;21569.567;23727.56634
 587.51;24058.819;  417.111;21474.579;23641.70738
 588.09;24188.651;  505.445;21851.397;23683.20617
 588.67;24441.084;  499.112;22121.821;23941.97211
 589.25;24262.708;  540.445;22211.086;23722.26257
 589.82;24169.903;  447.445;22019.990;23722.45861
 590.40;23990.368;  484.776;22014.590;23505.59208
 590.98;24300.958;  435.441;22102.305;23865.51722
 591.56;24808.627;  461.774;22144.336;24346.85298
 592.14;24918.988;  413.107;22318.391;24505.88114
 592.71;24346.019;  442.773;22243.449;23903.24632
 593.29;23807.498;  495.439;22433.944;23312.05880
 593.87;23599.358;  533.439;22383.817;23065.91909
 594.45;24361.653;  548.439;22561.144;23813.21441
 595.03;24718.843;  608.772;22390.347;24110.07101
 595.60;25039.721;  598.439;22250.177;24441.28184
 596.18;24949.216;  562.773;22072.991;24386.44362
 596.76;24629.707;  441.772;22158.556;24187.93497
 597.34;24352.083;  503.770;22144.409;23848.31353
 597.91;24252.787;  537.435;22131.169;23715.35148
 598.49;24290.041;  564.769;22043.067;23725.27184
 599.07;24271.403;  470.437;22259.701;23800.96674
 599.65;24137.974;  493.105;22442.162;23644.86879
 600.22;24593.550;  497.439;22426.717;24096.11146
 600.80;25371.878;  569.438;22290.742;24802.43986
 601.38;25727.020;  546.438;22508.234;25180.58201
 601.96;25395.596;  488.105;22887.789;24907.49134
 602.53;24828.292;  447.439;23207.756;24380.85291
 603.11;24942.552;  417.772;23154.023;24524.77938
 603.69;25280.173;  459.104;23381.736;24821.06851
 604.27;26066.805;  539.104;23360.400;25527.70084
 604.84;25833.548;  547.771;23424.745;25285.77687
 605.42;25724.679;  540.104;22960.894;25184.57465
 606.00;25019.120;  441.770;22983.443;24577.35030
 606.57;25318.454;  476.435;23251.835;24842.01815
 607.15;25755.876;  525.101;23430.975;25230.77423
 607.73;26069.321;  580.768;23298.773;25488.55363
 608.31;25612.962;  542.435;22672.691;25070.52671
 608.88;25250.343;  507.102;22627.734;24743.24118
 609.46;25476.612;  481.101;22904.372;24995.51075
 610.04;25647.885;  475.434;23097.346;25172.45068
 610.61;25751.049;  446.766;23135.918;25304.28272
 611.19;26033.935;  465.099;22525.206;25568.83659
 611.77;26707.567;  458.098;22416.204;26249.46891
 612.34;26737.655;  454.433;22614.892;26283.22264
 612.92;26112.706;  436.767;23148.880;25675.93961
 613.50;25645.311;  441.767;23140.489;25203.54377
 614.07;25367.657;  474.767;22629.138;24892.88938
 614.65;25032.321;  488.768;22447.107;24543.55363
 615.23;24729.135;  484.102;22368.849;24245.03285
 615.80;24907.719;  468.769;22603.744;24438.94953
 616.38;25040.531;  470.435;22504.298;24570.09653
 616.96;24708.931;  525.767;22594.084;24183.16389
 617.53;24602.878;  490.099;22417.791;24112.77901
 618.11;24276.986;  473.098;22122.340;23803.88798
 618.68;24564.105;  428.765;22021.420;24135.34023
 619.26;24771.884;  454.765;21937.159;24317.11844
 619.84;25231.089;  451.098;21811.101;24779.99094
 620.41;25237.405;  459.099;21819.664;24778.30596
 620.99;24047.141;  472.767;21880.609;23574.37346
 621.56;23426.077;  468.767;21678.913;22957.30971
 622.14;22996.142;  485.766;21472.394;22510.37582
 622.72;23463.166;  481.764;21288.838;22981.40148
 623.29;23043.873;  531.097;21575.934;22512.77643
 623.87;22874.391;  525.431;21390.435;22348.96027
 624.44;22836.518;  568.764;21122.188;22267.75320
 625.02;23141.549;  605.097;20959.246;22536.45171
 625.60;22780.282;  555.097;20820.699;22225.18573
 626.17;22512.566;  513.097;21139.957;21999.46884
 626.75;22404.043;  442.431;20925.088;21961.61223
 627.32;22464.577;  486.096;20970.693;21978.48105
 627.90;22575.123;  483.762;20562.642;22091.36089
 628.47;22695.589;  528.762;20617.096;22166.82659
 629.05;23051.886;  543.763;20815.642;22508.12323
 629.63;23286.021;  539.763;20853.461;22746.25802
 630.20;23290.287;  497.428;20935.821;22792.85843
 630.78;23316.933;  456.762;20933.773;22860.17095
 631.35;22958.128;  461.096;20981.558;22497.03131
 631.93;23174.490;  434.097;21038.192;22740.39288
 632.50;23359.102;  456.097;20731.142;22903.00440
 633.08;22915.913;  427.095;20709.784;22488.81799
 633.65;22521.879;  497.426;20689.233;22024.45266
 634.23;21737.153;  497.759;20826.513;21239.39383
 634.80;22172.116;  544.760;20899.753;21627.35589
 635.38;22456.924;  519.093;21011.245;21937.83137
 635.95;23086.056;  521.759;21177.453;22564.29699
 636.53;22897.989;  499.759;21326.059;22398.23081
 637.10;22269.435;  472.425;21203.858;21797.01020
 637.68;21904.478;  458.090;21114.652;21446.38758
 638.25;21972.296;  483.091;20831.123;21489.20500
 638.83;22267.339;  508.426;20681.378;21758.91343
 639.40;22488.908;  553.427;20217.867;21935.48090
 639.98;22354.186;  501.093;19814.876;21853.09359
 640.55;22666.894;  484.094;19820.462;22182.79915
 641.13;22399.997;  427.095;19930.557;21972.90260
 641.70;22511.434;  467.095;20314.651;22044.33938
 642.28;22229.204;  450.095;20186.745;21779.10950
 642.85;21940.975;  456.762;20192.507;21484.21296
 643.42;21843.411;  429.095;20107.934;21414.31641
 644.00;21823.515;  485.429;20103.029;21338.08653
 644.57;21845.285;  452.095;19889.123;21393.18998
 645.15;21852.389;  524.095;19675.884;21328.29343
 645.72;21930.159;  479.429;19536.645;21450.73022
 646.30;22153.596;  546.762;19704.407;21606.83367
 646.87;22257.700;  485.763;19868.168;21771.93712
 647.45;21836.137;  481.096;19755.262;21355.04058
 648.02;21880.907;  456.429;19792.023;21424.47736
 648.59;21953.010;  423.430;19896.451;21529.58082
 649.17;21981.447;  491.763;20259.212;21489.68427
 649.74;21384.884;  498.763;20108.973;20886.12105
 650.32;21076.321;  576.430;19858.401;20499.89117
 650.89;21040.758;  478.763;19432.162;20561.99463
 651.46;21542.195;  506.097;19357.923;21036.09808
 652.04;21152.299;  498.097;19346.684;20654.20153
 652.61;20886.069;  524.097;19424.779;20361.97165
 653.19;20405.839;  497.764;19206.207;19908.07510
 653.76;20531.609;  487.097;18975.301;20044.51189
 654.33;20255.713;  523.431;18849.729;19732.28201
 654.91;20392.817;  534.764;19002.157;19858.05213
 655.48;20762.920;  585.098;19054.584;20177.82225
 656.05;21204.690;  574.098;18952.679;20630.59236
 656.63;21239.127;  572.098;18685.107;20667.02915
 657.20;20536.564;  537.432;18342.201;19999.13260
 657.78;20544.668;  540.432;18056.295;20004.23605
 658.35;20496.438;  495.432;17984.723;20001.00618
 658.92;20775.542;  500.099;18239.818;20275.44296
 659.50;20362.645;  484.432;18449.579;19878.21308
 660.07;20126.749;  500.432;18478.007;19626.31653
 660.64;19854.852;  472.432;18543.101;19382.41998
 661.22;20125.623;  459.766;18577.862;19665.85677
 661.79;19975.060;  484.099;18935.623;19490.96022
 662.36;19877.830;  459.099;18925.384;19418.73034
 662.93;20029.267;  482.433;18779.812;19546.83379
 663.51;20116.704;  483.766;18440.240;19632.93725
 664.08;20608.141;  502.100;18198.334;20106.04070
 664.65;20358.911;  445.767;18189.762;19913.14415
 665.23;20486.348;  445.433;18199.523;20040.91427
 665.80;20170.785;  410.434;18248.618;19760.35105
 666.37;20154.555;  578.434;18305.712;19576.12118
 666.95;20288.325;  562.767;18426.806;19725.55796
 667.52;20565.095;  561.767;18366.568;20003.32808
 668.09;20537.532;  391.434;18367.995;20146.09819
 668.66;20297.969;  398.101;18291.090;19899.86832
 669.24;20156.073;  486.101;18254.518;19669.97177
 669.81;20078.176;  508.435;18101.279;19569.74189
 670.38;20372.613;  473.768;18336.040;19898.84534
 670.95;20457.384;  482.102;18568.801;19975.28213
 671.53;20462.487;  504.102;18802.229;19958.38558
 672.10;20042.257;  544.768;18735.323;19497.48903
 672.67;19881.361;  503.769;18569.418;19377.59248
 673.24;20116.465;  487.102;18485.512;19629.36260
 673.82;20426.235;  506.102;18222.606;19920.13272
 674.39;20509.005;  558.436;18286.034;19950.56951
 674.96;20085.109;  586.769;18406.129;19498.33963
 675.53;19643.212;  553.436;18597.223;19089.77641
 676.11;19399.983;  454.436;18417.984;18945.54653
 676.68;19546.086;  414.436;18183.745;19131.64998
 677.25;19704.190;  447.436;18157.506;19256.75343
 677.82;19992.293;  459.770;18247.601;19532.52355
 678.39;19997.397;  453.770;18388.695;19543.62701
 678.97;20485.167;  468.103;18689.123;20017.06379
 679.54;20617.604;  490.770;18953.218;20126.83391
 680.11;20852.708;  508.104;19152.645;20344.60403
 680.68;20538.145;  451.104;18911.740;20087.04082
 681.25;20386.915;  413.437;18747.834;19973.47760
 681.83;21077.685;  397.771;18886.262;20679.91439
 682.40;21768.122;  417.771;19189.023;21350.35117
 682.97;21988.226;  456.438;19660.118;21531.78796
 683.54;21782.996;  467.438;19830.879;21315.55808
 684.11;21280.766;  486.438;19577.640;20794.32820
 684.68;21256.203;  493.771;19372.068;20762.43165
 685.26;21197.973;  491.772;19346.829;20706.20177
 685.83;21639.410;  439.772;19533.590;21199.63856
 686.40;21910.180;  438.772;19710.351;21471.40868
 686.97;21941.284;  415.439;19431.779;21525.84546
 687.54;21820.388;  465.772;19353.206;21354.61558
 688.11;21804.158;  406.106;19013.301;21398.05236
 688.68;22028.928;  435.439;18846.729;21593.48915
 689.26;21981.698;  424.439;18835.823;21557.25927
 689.83;22111.135;  478.773;18987.251;21632.36272
 690.40;21741.239;  488.106;19135.345;21253.13284
 690.97;22020.343;  458.106;19350.106;21562.23630
 691.54;21919.446;  474.773;19493.534;21444.67308
 692.11;22554.550;  482.440;19647.629;22072.10987
 692.68;22585.320;  525.773;19346.056;22059.54665
 693.25;22759.090;  637.773;19377.484;22121.31677
 693.82;22348.860;  694.107;19729.579;21654.75356
 694.40;22078.631;  664.440;20020.006;21414.19034
 694.97;21660.401;  508.107;19889.767;21152.29380
 695.54;21254.505;  429.107;19681.529;20825.39725
 696.11;21831.941;  441.774;19411.956;21390.16737
 696.68;21982.712;  446.774;19176.051;21535.93749
 697.25;22366.149;  440.774;19010.812;21925.37427
 697.82;22058.586;  445.108;18994.906;21613.47772
 698.39;22123.689;  437.441;18936.334;21686.24784
 698.96;22144.459;  457.108;18668.095;21687.35129
 699.53;22046.563;  437.108;18758.856;21609.45475
 700.10;21997.000;  446.108;19010.951;21550.89154
 700.67;21585.437;  417.442;19359.712;21167.99499
 701.24;21151.874;  400.775;19507.806;20751.09844
 701.81;21066.311;  406.775;19727.567;20659.53523
 702.38;21571.414;  405.442;19533.662;21165.97201
 702.95;22324.851;  426.776;19472.423;21898.07546
 703.52;22421.955;  433.776;19124.851;21988.17891
 704.09;22101.058;  452.109;19070.279;21648.94903
 704.66;21856.829;  481.776;19075.040;21375.05249
 705.23;22207.266;  435.110;19108.801;21772.15594
 705.80;22301.369;  437.110;19156.895;21864.25939
 706.37;21751.473;  406.443;18952.323;21345.02951
 706.94;21105.910;  438.777;18875.751;20667.13296
 707.51;21069.347;  476.443;19168.179;20592.90308
 708.08;21274.450;  496.444;19686.606;20778.00653
 708.65;21526.887;  468.110;19888.701;21058.77665
 709.22;21929.324;  459.444;19962.462;21469.88011
 709.79;22192.094;  455.777;19650.890;21736.31689
 710.36;22220.531;  460.111;19635.984;21760.42034
 710.93;21991.635;  420.111;19673.412;21571.52380
 711.50;21641.072;  400.444;19799.173;21240.62725
 712.07;21601.509;  410.111;19839.267;21191.39737
 712.64;21427.612;  420.778;19679.362;21006.83415
 713.21;21828.716;  409.778;19557.123;21418.93760
 713.78;21416.486;  407.778;19553.217;21008.70772
 714.35;21163.923;  415.445;19490.312;20748.47784
 714.92;20877.360;  402.779;19229.073;20474.58130
 715.49;21394.463;  379.445;19065.167;21015.01808
 716.06;21887.234;  373.112;19111.928;21514.12154
 716.63;22372.671;  404.112;19300.690;21968.55832
 717.20;21933.774;  424.446;19598.784;21509.32844
 717.77;21687.878;  442.113;19535.545;21245.76522
 718.34;20962.981;  430.446;19696.973;20532.53534
 718.90;21008.085;  439.446;19450.401;20568.63880
 719.47;20895.522;  411.780;19521.495;20483.74225
 720.04;21216.959;  422.113;19545.923;20794.84570
 720.61;21534.062;  412.780;19469.017;21121.28249
 721.18;21895.499;  399.447;18985.112;21496.05261
 721.75;22008.603;  357.114;18679.206;21651.48939
 722.32;22320.373;  356.780;19185.967;21963.59284
 722.89;22417.143;  370.114;19521.728;22047.02963
 723.46;22255.914;  417.447;19711.490;21838.46642
 724.02;21452.017;  443.447;19196.251;21008.56987
 724.59;20211.454;  469.448;19080.012;19742.00665
 725.16;19698.558;  453.448;18968.106;19245.11011
 725.73;19663.661;  416.114;19131.534;19247.54689
 726.30;20458.432;  385.115;19322.295;20073.31701
 726.87;21050.535;  372.115;19182.056;20678.42046
 727.44;21592.305;  385.782;19009.151;21206.52392
 728.00;21869.076;  391.115;19295.912;21477.96070
 728.57;21838.513;  393.782;19916.340;21444.73082
 729.14;21919.950;  396.115;20173.101;21523.83427
 729.71;21875.386;  414.449;19704.528;21460.93773
 730.28;21900.823;  380.449;19187.956;21520.37451
 730.85;21791.260;  377.116;18948.717;21414.14463
 731.41;22034.697;  451.782;19020.145;21582.91475
 731.98;21965.467;  477.783;19332.573;21487.68487
 732.55;22204.571;  479.116;19615.667;21725.45499
 733.12;21805.341;  413.450;19769.428;21391.89177
 733.69;21822.112;  414.450;19595.190;21407.66189
 734.25;21855.215;  407.783;19395.617;21447.43201
 734.82;22026.652;  384.783;19136.712;21641.86880
 735.39;22214.089;  396.783;18977.806;21817.30558
 735.96;22450.526;  380.450;19132.901;22070.07570
 736.52;22750.296;  402.784;19429.662;22347.51249
 737.09;22926.400;  431.450;19831.756;22494.94927
 737.66;22495.503;  457.451;19960.184;22038.05273
 738.23;21937.940;  424.784;19818.945;21513.15618
 738.80;21353.377;  381.784;19436.039;20971.59296
 739.36;20677.814;  380.784;19141.134;20297.02975
 739.93;20517.918;  393.784;19257.562;20124.13320
 740.50;20632.021;  416.118;19728.323;20215.90332
 741.07;21401.458;  421.118;19940.417;20980.34011
 741.63;21876.562;  437.118;19730.845;21439.44356
 742.20;21428.665;  428.785;19388.939;20999.88035
 742.77;21332.769;  434.785;19159.367;20897.98380
 743.33;21108.539;  421.119;19072.795;20687.42058
 743.90;21955.309;  430.785;19080.889;21524.52404
 744.47;21724.746;  428.119;19424.651;21296.62749
 745.04;21551.517;  438.119;19795.078;21113.39761
 745.60;21251.620;  474.452;19978.839;20777.16773
 746.17;20876.390;  582.119;19943.601;20294.27118
 746.74;20657.827;  558.119;19901.695;20099.70797
 747.30;20775.264;  530.786;19865.789;20244.47809
 747.87;20590.035;  446.453;19631.217;20143.58154
 748.44;20584.805;  481.453;19445.312;20103.35166
 749.00;20472.575;  494.120;19517.739;19978.45511
 749.57;21353.345;  458.787;19885.501;20894.55856
 750.14;22209.449;  433.787;20238.262;21775.66201
 750.70;22060.886;  398.120;19956.356;21662.76547
 751.27;21970.989;  433.121;19933.451;21537.86892
 751.84;21696.426;  407.454;20178.878;21288.97237
 752.40;21874.197;  421.121;20932.639;21453.07582
 752.97;21651.634;  416.454;20872.401;21235.17928
 753.54;21622.737;  453.788;20558.162;21168.94940
 754.10;21750.507;  422.121;19842.256;21328.38618
 754.67;22297.944;  466.788;19831.017;21831.15630
 755.24;22315.381;  436.455;19706.112;21878.92642
 755.80;22419.485;  446.122;19708.539;21973.36321
 756.37;22363.588;  368.788;19663.967;21994.79999
 756.94;22903.692;  417.455;19630.062;22486.23678
 757.50;23153.462;  417.789;19829.823;22735.67356
 758.07;22933.566;  406.455;20074.917;22527.11035
 758.63;22129.003;  351.456;20422.678;21777.54713
 759.20;21690.440;  396.122;20461.106;21294.31725
 759.77;21643.877;  412.456;20138.867;21231.42070
 760.33;21789.980;  429.123;19919.628;21360.85749
 760.90;21603.417;  369.456;19874.389;21233.96094
 761.46;21288.521;  392.123;19935.484;20896.39773
 762.03;21171.958;  385.790;19786.578;20786.16785
 762.60;21778.728;  471.790;19728.006;21306.93797
 763.16;22273.165;  466.790;19703.767;21806.37475
 763.73;22794.602;  467.790;19719.195;22326.81154
 764.29;22689.372;  386.457;19793.289;22302.91499
 764.86;22528.476;  393.790;19834.384;22134.68511
 765.42;22121.246;  402.124;20085.812;21719.12190
 765.99;22285.016;  405.124;20317.573;21879.89201
 766.55;22779.786;  399.124;20594.667;22380.66213
 767.12;23388.557;  396.458;20647.095;22992.09892
 767.68;23224.993;  409.458;20525.189;22815.53571
 768.25;22824.097;  384.791;20597.617;22439.30582
 768.82;22816.867;  356.125;20448.378;22460.74261
 769.38;22862.304;  389.125;20364.806;22473.17940
 769.95;22688.741;  397.792;19736.234;22290.94952
 770.51;22188.845;  423.792;19361.995;21765.05297
 771.08;22080.282;  405.459;19056.423;21674.82309
 771.64;21652.719;  391.792;19106.517;21260.92654
 772.21;21630.155;  440.125;19514.612;21190.02999
 772.77;21738.259;  449.126;19591.039;21289.13344
 773.34;22313.029;  478.126;19456.134;21834.90356
 773.90;22352.800;  442.459;19418.895;21910.34035
 774.47;21556.903;  469.459;19758.656;21087.44380
 775.03;20927.673;  476.459;19952.084;20451.21392
 775.60;20445.777;  466.126;19764.845;19979.65071
 776.16;20478.547;  431.460;19403.939;20047.08749
 776.73;20898.651;  429.460;19422.034;20469.19094
 777.29;21493.421;  443.127;19160.128;21050.29440
 777.85;21750.191;  420.460;18797.556;21329.73118
 778.42;21107.295;  429.460;18428.650;20677.83464
 778.98;20157.732;  392.127;18510.745;19765.60475
 779.55;20036.502;  391.127;18505.839;19645.37487
 780.11;20617.939;  355.127;18481.600;20262.81166
 780.68;20852.376;  383.128;18281.695;20469.24845
 781.24;21097.813;  386.461;18356.789;20711.35190
 781.81;21170.250;  389.794;18143.884;20780.45535
 782.37;21501.020;  411.128;18073.645;21089.89214
 782.93;20912.457;  417.795;17894.073;20494.66225
 783.50;20791.894;  419.128;17874.167;20372.76571
 784.06;20819.997;  384.128;17823.595;20435.86916
 784.63;20893.434;  385.128;17756.689;20508.30594
 785.19;20259.538;  394.462;17820.784;19865.07606
 785.75;19638.642;  408.462;17793.878;19230.17952
 786.32;19511.745;  431.796;17865.973;19079.94963
 786.88;19155.849;  446.462;17952.734;18709.38642
 787.45;18935.952;  427.796;18196.495;18508.15654
 788.01;18409.056;  376.463;18230.589;18032.59333
 788.57;18879.160;  330.796;17817.350;18548.36345
 789.14;19023.263;  333.130;17188.778;18690.13356
 789.70;19548.033;  339.130;16872.873;19208.90368
 790.26;19553.470;  375.130;16866.634;19178.34047
 790.83;19254.574;  372.797;16841.061;18881.77726
 791.39;18771.011;  367.797;16607.823;18403.21404
 791.95;18781.114;  368.797;16800.250;18412.31749
 792.52;18802.885;  386.464;16949.678;18416.42094
 793.08;18820.988;  407.797;16987.773;18413.19107
 793.64;18469.092;  391.464;16407.200;18077.62785
 794.21;18376.862;  366.797;15884.628;18010.06464
 794.77;18131.966;  389.464;15803.056;17742.50142
 795.33;17872.736;  398.131;15997.150;17474.60487
 795.90;17847.173;  420.131;16264.911;17427.04166
 796.46;17893.943;  409.131;16534.673;17484.81178
 797.02;17958.713;  420.798;16473.434;17537.91523
 797.59;17990.817;  408.798;16296.195;17582.01868
 798.15;18305.254;  471.132;16011.956;17834.12214
 798.71;18426.357;  466.798;16118.384;17959.55892
 799.28;17868.461;  474.799;16106.478;17393.66237
 799.84;17072.898;  410.132;16165.906;16662.76583
 800.40;16261.668;  382.132;15984.000;15879.53595
 800.96;16731.772;  381.132;15802.761;16350.63940
 801.53;17442.542;  353.466;15447.189;17089.07618
 802.09;17744.312;  352.133;15270.617;17392.17964
 802.65;17289.083;  355.799;15378.378;16933.28309
 803.21;16447.519;  391.800;15356.139;16055.71988
 803.78;16043.290;  405.466;15254.900;15637.82333
 804.34;15829.393;  435.800;14932.995;15393.59345
 804.90;15666.830;  421.800;14616.089;15245.03023
 805.46;15355.267;  439.467;14292.850;14915.80035
 806.03;15050.704;  425.467;14103.945;14625.23714
 806.59;14858.808;  427.800;14352.039;14431.00726
 807.15;14987.245;  423.801;14357.800;14563.44404
 807.71;15044.015;  412.134;14408.561;14631.88083
 808.28;15479.452;  418.801;14111.656;15060.65095
 808.84;15825.222;  409.134;14267.750;15416.08773
 809.40;16009.326;  424.134;14139.178;15585.19118
 809.96;15809.096;  426.135;14121.606;15382.96130
 810.52;15490.199;  422.801;14008.367;15067.39809
 811.09;14779.970;  394.135;14023.461;14385.83488
 811.65;14068.740;  424.802;13716.889;13643.93833
 812.21;13475.510;  427.802;13465.984;13047.70845
 812.77;13597.947;  418.135;13073.078;13179.81190
 813.33;13876.717;  366.469;13023.839;13510.24869
 813.90;14009.154;  378.135;12848.267;13631.01880
 814.46;13792.258;  416.802;12921.695;13375.45559
 815.02;13451.028;  398.136;12893.456;13052.89238
 815.58;13516.132;  409.803;12684.884;13106.32916
 816.14;14040.235;  410.136;12506.978;13630.09928
 816.70;14439.006;  469.469;12326.739;13969.53607
 817.26;14154.109;  434.136;12390.167;13719.97285
 817.83;13846.213;  381.470;12341.595;13464.74297
 818.39;13215.650;  362.470;12182.022;12853.17976
 818.95;12743.753;  391.470;11927.784;12352.28321
 819.51;12396.523;  431.803;11720.878;11964.71999
 820.07;12185.960;  442.804;11391.972;11743.15678
 820.63;12049.397;  417.137;11184.400;11632.26023
 821.19;11660.834;  420.804;11124.161;11240.03035
 821.75;11461.604;  378.804;11198.256;11082.80047
 822.32;11458.708;  412.804;11313.017;11045.90392
 822.88;11516.145;  408.471;11194.445;11107.67404
 823.44;11573.915;  408.804;11038.206;11165.11083
 824.00;12002.352;  432.138;10869.967;11570.21428
 824.56;11789.456;  439.138;10713.061;11350.31773
 825.12;11554.893;  492.138;10643.156;11062.75452
 825.68;10926.330;  457.805;10697.917;10468.52464
 826.24;10811.433;  429.805;10692.678;10381.62809
 826.80;10687.537;  408.139;10510.439;10279.39821
 827.36;10511.640;  422.472;10200.867;10089.16833
 827.92;10586.411;  432.472;10046.628;10153.93845
 828.48;10847.514;  404.806;10187.389;10442.70857
 829.04;10996.951;  409.472;10173.484;10587.47869
 829.60;11025.055;  405.806;10036.245;10619.24881
 830.17;10845.158;  439.473; 9928.339;10405.68559
 830.73;10786.595;  384.473; 9759.100;10402.12238
 831.29;10257.699;  391.473; 9740.861;9866.22583
 831.85; 9787.802;  361.140; 9577.289;9426.66262
 832.41; 9295.906;  402.473; 9702.050;8893.43273
 832.97; 9263.343;  389.807; 9570.811;8873.53619
 833.53; 9374.113;  391.140; 9398.239;8982.97297
 834.09; 9493.550;  367.474; 9032.667;9126.07643
 834.65; 9480.654;  414.474; 9064.428;9066.17988
 835.21; 9376.091;  408.474; 8901.522;8967.61666
 835.77; 9569.194;  396.807; 8705.950;9172.38678
 836.33; 9661.298;  355.474; 8427.711;9305.82357
 836.89; 9727.735;  356.808; 8516.139;9370.92702
 837.45; 9728.838;  402.141; 8673.233;9326.69714
 838.01; 9459.275;  403.141; 8743.661;9056.13393
 838.57; 9168.712;  386.808; 8606.089;8781.90404
 839.13; 8714.149;  363.475; 8522.517;8350.67416
 839.69; 8753.586;  388.808; 8394.278;8364.77762
 840.24; 8719.356;  442.808; 8367.372;8276.54774
 840.80; 8557.126;  434.809; 8268.467;8122.31785
 841.36; 8293.230;  445.809; 8234.895;7847.42131
 841.92; 8326.667;  406.142; 8131.322;7920.52476
 842.48; 8477.104;  397.476; 8110.750;8079.62821
 843.04; 8619.874;  361.809; 8151.511;8258.06500
 843.60; 8663.644;  379.809; 8241.272;8283.83512
 844.16; 8461.748;  381.809; 8288.367;8079.93857
 844.72; 8180.518;  384.810; 8091.795;7795.70869
 845.28; 7914.955;  423.810; 7937.556;7491.14547
 845.84; 7965.059;  455.476; 7763.317;7509.58226
 846.40; 8059.162;  435.143; 7617.745;7624.01905
 846.96; 8180.266;  400.810; 7422.839;7779.45583
 847.52; 8145.036;  401.477; 7270.600;7743.55928
 848.07; 8066.806;  454.144; 7277.361;7612.66274
 848.63; 7843.910;  455.810; 7290.789;7388.09952
 849.19; 7441.680;  417.811; 7160.217;7023.86964
 849.75; 7346.451;  413.477; 7197.645;6932.97309
 850.31; 7444.221;  398.478; 7143.072;7045.74321
 850.87; 7840.658;  480.144; 7223.167;7360.51333
 851.43; 7641.761;  430.144; 7040.595;7211.61678
 851.99; 7392.865;  438.478; 6988.022;6954.38690
 852.54; 7212.635;  388.145; 6899.450;6824.49036
 853.10; 7382.405;  423.478; 6883.545;6958.92714
 853.66; 7479.176;  416.478; 6768.306;7062.69726
 854.22; 7259.613;  394.812; 6611.067;6864.80071
 854.78; 7081.049;  372.812; 6440.828;6708.23750
 855.34; 6894.486;  357.479; 6383.922;6537.00762
 855.89; 6827.590;  360.479; 6376.683;6467.11107
 856.45; 6697.360;  384.479; 6389.778;6312.88119
 857.01; 6844.130;  475.812; 6455.206;6368.31797
 857.57; 6926.234;  457.479; 6389.300;6468.75476
 858.13; 7079.671;  449.146; 6348.728;6630.52488
 858.69; 7075.108;  395.813; 6153.156;6679.29500
 859.24; 7109.211;  373.813; 5975.917;6735.39845
 859.80; 6993.315;  348.813; 5794.678;6644.50190
 860.36; 6590.419;  327.147; 5841.772;6263.27202
 860.92; 6437.856;  370.480; 5916.867;6067.37547
 861.47; 6465.626;  366.480; 6051.961;6099.14559
 862.03; 6542.063;  364.814; 6000.056;6177.24905
 862.59; 6226.166;  370.147; 5926.817;5856.01917
 863.15; 5732.270;  381.814; 5818.911;5350.45595
 863.71; 5440.040;  360.814; 5748.339;5079.22607
 864.26; 5498.144;  354.148; 5735.767;5143.99619
 864.82; 5675.581;  344.148; 5664.528;5331.43298
 865.38; 5887.684;  358.815; 5507.289;5528.86976
 865.94; 6052.788;  346.815; 5458.050;5705.97321
 866.49; 5960.891;  345.481; 5496.144;5615.41000
 867.05; 5753.995;  368.148; 5579.906;5385.84679
 867.61; 5610.765;  354.482; 5572.333;5256.28357
 868.16; 5572.202;  359.815; 5457.094;5212.38702
 868.72; 5647.972;  344.482; 5441.189;5303.49048
 869.28; 5632.076;  365.815; 5450.950;5266.26059
 869.84; 5559.846;  361.149; 5436.378;5198.69738
 870.39; 5544.283;  371.482; 5338.806;5172.80083
 870.95; 5483.720;  365.483; 5185.900;5118.23762
 871.51; 5579.824;  361.816; 5101.328;5218.00774
 872.06; 5462.594;  331.149; 5056.756;5131.44452
 872.62; 5351.031;  334.150; 5133.517;5016.88131
 873.18; 5273.801;  339.483; 5106.611;4934.31810
 873.73; 5409.571;  385.150; 5037.039;5024.42155
 874.29; 5497.675;  373.817; 4886.800;5123.85833
 874.85; 5389.008;  405.150; 4885.800;4983.85833
 875.40; 5102.008;  390.150; 4832.800;4711.85833
 875.96; 4940.675;  439.483; 4874.133;4501.19167
 876.52; 4966.675;  448.817; 4834.800;4517.85833
 877.07; 4926.008;  460.483; 4794.133;4465.52500
 877.63; 4737.008;  428.817; 4826.133;4308.19167
 878.19; 4600.675;  382.150; 4852.133;4218.52500
 878.74; 4604.675;  373.483; 4896.133;4231.19167
 879.30; 4794.342;  362.817; 4706.467;4431.52500
 879.86; 4820.008;  383.150; 4488.133;4436.85833
 880.41; 4856.008;  376.483; 4382.800;4479.52500
 880.97; 4790.008;  355.817; 4453.800;4434.19167
 881.52; 4964.008;  343.483; 4535.800;4620.52500
 882.08; 5115.008;  336.150; 4507.133;4778.85833
 882.64; 5125.675;  365.817; 4430.133;4759.85833
 883.19; 4906.342;  365.150; 4388.133;4541.19167
 883.75; 4704.675;  365.483; 4498.133;4339.19167
 884.30; 4594.342;  353.817; 4567.800;4240.52500
 884.86; 4552.675;  372.150; 4605.467;4180.52500
 885.42; 4392.675;  373.817; 4619.133;4018.85833
 885.97; 4404.342;  396.150; 4586.133;4008.19167
 886.53; 4549.342;  391.150; 4566.467;4158.19167
 887.08; 4784.675;  397.150; 4426.467;4387.52500
 887.64; 4908.008;  419.817; 4423.800;4488.19167
 888.19; 4829.342;  419.150; 4429.467;4410.19167
 888.75; 4649.342;  406.483; 4330.467;4242.85833
 889.31; 4417.675;  364.483; 4128.800;4053.19167
 889.86; 4281.342;  345.483; 3924.800;3935.85833
 890.42; 4259.008;  342.817; 3994.133;3916.19167
 890.97; 4262.342;  351.150; 4049.467;3911.19167
 891.53; 4333.675;  376.817; 4081.133;3956.85833
 892.08; 4331.008;  394.483; 3942.133;3936.52500
 892.64; 4267.008;  408.483; 3900.800;3858.52500
 893.19; 4166.008;  394.483; 3900.800;3771.52500
 893.75; 4160.342;  385.150; 3902.467;3775.19167
 894.30; 4066.008;  369.817; 3925.800;3696.19167
 894.86; 3870.675;  377.483; 3927.800;3493.19167
 895.41; 3686.675;  403.150; 3918.467;3283.52500
 895.97; 3709.342;  384.150; 3725.133;3325.19167
 896.52; 3779.675;  383.483; 3531.133;3396.19167
 897.08; 3773.342;  349.150; 3439.467;3424.19167
 897.63; 3658.342;  345.817; 3463.133;3312.52500
 898.19; 3485.008;  336.483; 3459.800;3148.52500
 898.74; 3337.675;  332.483; 3400.467;3005.19167
 899.30; 3314.342;  324.150; 3312.133;2990.19167
 899.85; 3322.008;  313.817; 3291.800;3008.19167
 900.41; 3463.008;  365.483; 3336.467;3097.52500
 900.96; 3526.342;  388.150; 3342.133;3138.19167
 901.51; 3601.342;  408.817; 3274.467;3192.52500
 902.07; 3613.008;  471.817; 3220.133;3141.19167
 902.62; 3521.342;  467.150; 3151.800;3054.19167
 903.18; 3390.342;  459.483; 3190.800;2930.85833
 903.73; 3163.342;  380.817; 3191.800;2782.52500
 904.29; 3160.342;  378.483; 3183.467;2781.85833
 904.84; 3201.008;  390.150; 3188.133;2810.85833
 905.39; 3208.008;  351.150; 3127.133;2856.85833
 905.95; 3044.342;  369.483; 3149.800;2674.85833
 906.50; 2998.008;  465.483; 3190.467;2532.52500
 907.06; 2939.008;  469.817; 3140.467;2469.19167
 907.61; 2993.342;  484.150; 3134.133;2509.19167
 908.16; 2941.008;  387.150; 3016.133;2553.85833
 908.72; 2980.008;  398.817; 2946.800;2581.19167
 909.27; 2961.675;  376.817; 2909.800;2584.85833
 909.82; 2963.342;  413.817; 2904.133;2549.52500
 910.38; 2921.008;  411.817; 2873.467;2509.19167
 910.93; 2894.675;  424.817; 2756.467;2469.85833
 911.49; 2824.342;  380.483; 2655.800;2443.85833
 912.04; 2772.675;  370.817; 2643.467;2401.85833
 912.59; 2675.008;  368.483; 2663.467;2306.52500
 913.15; 2627.008;  384.150; 2658.133;2242.85833
 913.70; 2539.008;  375.817; 2624.800;2163.19167
 914.25; 2547.675;  362.483; 2602.467;2185.19167
 914.81; 2602.008;  359.150; 2594.467;2242.85833
 915.36; 2735.342;  396.150; 2637.800;2339.19167
 915.91; 2848.008;  398.483; 2619.133;2449.52500
 916.47; 2881.342;  383.483; 2610.467;2497.85833
 917.02; 2807.008;  378.150; 2518.133;2428.85833
 917.57; 2673.675;  365.150; 2434.133;2308.52500
 918.12; 2531.008;  370.483; 2411.800;2160.52500
 918.68; 2474.675;  387.483; 2439.800;2087.19167
 919.23; 2440.008;  399.483; 2472.800;2040.52500
 919.78; 2485.342;  396.150; 2425.800;2089.19167
 920.34; 2576.008;  428.483; 2483.133;2147.52500
 920.89; 2580.008;  427.150; 2454.467;2152.85833
 921.44; 2528.008;  446.817; 2432.467;2081.19167
 921.99; 2401.342;  373.483; 2302.133;2027.85833
 922.55; 2392.675;  383.150; 2267.467;2009.52500
 923.10; 2341.342;  360.150; 2253.467;1981.19167
 923.65; 2291.342;  395.483; 2254.467;1895.85833
 924.20; 2232.008;  405.150; 2218.133;1826.85833
 924.76; 2242.675;  419.817; 2167.800;1822.85833
 925.31; 2219.008;  385.817; 2136.467;1833.19167
 925.86; 2254.675;  375.817; 2122.133;1878.85833
 926.41; 2178.342;  355.483; 2106.467;1822.85833
 926.97; 2138.008;  379.817; 2110.467;1758.19167
 927.52; 2059.342;  381.817; 2109.800;1677.52500
 928.07; 2099.342;  447.483; 2184.133;1651.85833
 928.62; 2145.008;  462.483; 2154.133;1682.52500
 929.17; 2239.342;  465.483; 2139.133;1773.85833
 929.73; 2225.342;  404.150; 2013.800;1821.19167
 930.28; 2252.008;  405.817; 2026.133;1846.19167
 930.83; 2214.675;  404.817; 2040.467;1809.85833
 931.38; 2200.008;  405.817; 2064.800;1794.19167
 931.93; 2140.008;  358.483; 1992.800;1781.52500
 932.48; 2063.008;  357.150; 1944.800;1705.85833
 933.04; 2011.008;  357.150; 1915.800;1653.85833
 933.59; 1959.008;  364.817; 1890.133;1594.19167
 934.14; 1941.675;  356.483; 1841.133;1585.19167
 934.69; 1929.008;  385.483; 1837.800;1543.52500
 935.24; 1900.342;  387.483; 1827.133;1512.85833
 935.79; 1883.675;  390.817; 1809.800;1492.85833
 936.34; 1903.675;  384.817; 1772.133;1518.85833
 936.90; 1965.675;  402.483; 1768.467;1563.19167
 937.45; 1930.008;  391.817; 1772.800;1538.19167
 938.00; 1895.008;  357.483; 1780.800;1537.52500
 938.55; 1856.675;  357.817; 1813.467;1498.85833
 939.10; 1907.342;  363.483; 1856.800;1543.85833
 939.65; 1940.342;  388.817; 1836.467;1551.52500
 940.20; 1904.008;  375.483; 1784.467;1528.52500
 940.75; 1877.342;  454.817; 1763.800;1422.52500
 941.31; 1795.675;  439.150; 1769.467;1356.52500
 941.86; 1799.008;  458.817; 1822.467;1340.19167
 942.41; 1795.342;  408.817; 1794.133;1386.52500
 942.96; 1786.342;  412.150; 1744.133;1374.19167
 943.51; 1764.342;  388.483; 1647.133;1375.85833
 944.06; 1772.342;  378.817; 1608.133;1393.52500
 944.61; 1872.008;  434.483; 1654.467;1437.52500
 945.16; 1872.008;  415.483; 1692.467;1456.52500
 945.71; 1853.342;  402.483; 1715.467;1450.85833
 946.26; 1833.675;  369.483; 1623.800;1464.19167
 946.81; 1825.008;  434.483; 1616.800;1390.52500
 947.36; 1732.342;  411.483; 1559.133;1320.85833
 947.91; 1625.008;  390.483; 1574.800;1234.52500
 948.46; 1588.342;  336.817; 1492.467;1251.52500
 949.01; 1633.675;  359.817; 1484.800;1273.85833
 949.56; 1626.675;  347.150; 1465.800;1279.52500
 950.11; 1591.675;  350.150; 1486.133;1241.52500
 950.66; 1542.008;  337.483; 1434.467;1204.52500
 951.21; 1503.008;  351.150; 1399.467;1151.85833
 951.76; 1559.675;  415.483; 1425.133;1144.19167
 952.31; 1570.342;  399.150; 1413.800;1171.19167
 952.86; 1583.675;  423.483; 1493.800;1160.19167
 953.41; 1492.342;  362.483; 1417.800;1129.85833
 953.96; 1439.342;  374.817; 1424.800;1064.52500
 954.51; 1403.008;  352.150; 1338.467;1050.85833
 955.06; 1404.342;  343.150; 1325.467;1061.19167
 955.61; 1403.008;  339.150; 1345.467;1063.85833
 956.16; 1379.342;  326.817; 1386.133;1052.52500
 956.71; 1356.675;  366.483; 1384.467;990.19167
 957.26; 1333.342;  386.483; 1372.800;946.85833
 957.81; 1333.342;  383.817; 1276.800;949.52500
 958.36; 1344.008;  382.483; 1247.467;961.52500
 958.91; 1382.008;  379.150; 1200.467;1002.85833
 959.46; 1397.342;  403.150; 1211.133;994.19167
 960.01; 1343.675;  365.150; 1203.133;978.52500
 960.56; 1305.008;  351.150; 1203.133;953.85833
 961.11; 1295.008;  368.483; 1211.133;926.52500
 961.65; 1307.342;  368.150; 1207.800;939.19167
 962.20; 1250.342;  377.483; 1189.800;872.85833
 962.75; 1219.342;  343.150; 1155.800;876.19167
 963.30; 1190.675;  360.150; 1136.467;830.52500
 963.85; 1175.675;  359.483; 1151.800;816.19167
 964.40; 1166.675;  359.150; 1147.467;807.52500
 964.95; 1221.008;  379.817; 1149.800;841.19167
 965.50; 1246.342;  372.483; 1129.467;873.85833
 966.05; 1231.342;  379.150; 1114.467;852.19167
 966.59; 1164.342;  352.817; 1098.800;811.52500
 967.14; 1113.008;  354.817; 1070.467;758.19167
 967.69; 1062.675;  337.150; 1058.133;725.52500
 968.24; 1014.675;  338.150; 1053.133;676.52500
 968.79; 1048.008;  362.150; 1081.133;685.85833
 969.34; 1044.675;  370.150; 1076.800;674.52500
 969.89; 1073.008;  379.817; 1066.800;693.19167
 970.43; 1074.342;  413.483; 1065.800;660.85833
 970.98; 1078.342;  407.483; 1045.800;670.85833
 971.53; 1072.342;  408.817; 1011.133;663.52500
 972.08; 1059.342;  397.483; 1005.800;661.85833
 972.63; 1058.675;  428.150; 1018.133;630.52500
 973.17; 1045.342;  410.817; 1026.133;634.52500
 973.72; 1001.342;  374.483;  993.467;626.85833
 974.27;  985.675;  357.817;  956.800;627.85833
 974.82;  988.675;  389.483;  969.467;599.19167
 975.37; 1015.675;  390.150;  937.467;625.52500
 975.91; 1030.342;  377.483;  953.467;652.85833
 976.46; 1025.008;  342.817;  925.133;682.19167
 977.01;  998.008;  341.150;  946.133;656.85833
 977.56;  972.342;  350.483;  921.800;621.85833
 978.10; 1015.008;  368.150;  913.133;646.85833
 978.65; 1066.342;  379.150;  899.800;687.19167
 979.20; 1116.342;  407.150;  897.800;709.19167
 979.75; 1088.342;  415.483;  911.800;672.85833
 980.29; 1058.008;  420.817;  924.467;637.19167
 980.84; 1050.675;  418.817;  956.800;631.85833
 981.39; 1021.008;  402.483;  957.467;618.52500
 981.94; 1034.008;  401.150;  949.133;632.85833
 982.48;  994.008;  366.150;  906.133;627.85833
 983.03; 1008.008;  368.150;  879.800;639.85833
 983.58;  963.675;  349.817;  848.467;613.85833
 984.12;  993.342;  372.150;  860.800;621.19167
 984.67;  947.342;  372.817;  867.133;574.52500
 985.22;  950.675;  399.483;  907.133;551.19167
 985.77;  906.342;  387.817;  917.133;518.52500
 986.31;  972.675;  399.150;  931.467;573.52500
 986.86;  990.342;  381.483;  932.133;608.85833
 987.41; 1019.342;  390.483;  930.133;628.85833
 987.95;  979.008;  381.150;  930.800;597.85833
 988.50;  985.342;  396.150;  932.467;589.19167
 989.05;  961.342;  406.483;  938.800;554.85833
 989.59;  940.342;  428.483;  925.133;511.85833
 990.14;  899.008;  401.483;  895.467;497.52500
 990.69;  917.342;  409.483;  886.467;507.85833
 991.23;  947.008;  409.483;  904.800;537.52500
 991.78;  964.342;  442.150;  924.800;522.19167
 992.32;  955.342;  431.150;  909.467;524.19167
 992.87;  932.675;  422.483;  873.800;510.19167
 993.42;  899.675;  397.150;  831.133;502.52500
 993.96;  893.008;  395.817;  848.133;497.19167
 994.51;  907.008;  385.483;  892.133;521.52500
 995.05;  926.008;  397.817;  931.133;528.19167
 995.60;  937.342;  397.483;  924.800;539.85833
 996.15;  925.675;  388.817;  903.467;536.85833
 996.69;  929.675;  382.150;  878.133;547.52500
 997.24;  898.008;  406.483;  893.467;491.52500
 997.78;  923.342;  442.483;  913.133;480.85833
 998.33;  943.675;  438.483;  911.133;505.19167
 998.88;  963.342;  382.150;  882.467;581.19167
 999.42;  937.342;  350.150;  870.467;587.19167
 999.97;  928.675;  369.483;  876.133;559.19167
1000.51;  954.008;  410.817;  890.467;543.19167
1001.06;  967.675;  408.817;  862.800;558.85833
1001.60;  969.008;  402.817;  860.467;566.19167
1002.15;  956.675;  413.483;  879.133;543.19167
1002.69;  953.008;  407.150;  867.133;545.85833
1003.24;  956.342;  433.150;  903.800;523.19167
1003.78;  937.675;  398.150;  894.133;539.52500
1004.33;  904.342;  399.817;  908.467;504.52500
1004.87;  890.008;  369.817;  881.800;520.19167
1005.42;  889.008;  386.483;  873.800;502.52500
1005.96;  908.675;  412.817;  888.800;495.85833
1006.51;  913.342;  424.483;  884.467;488.85833
1007.05;  902.008;  417.483;  903.467;484.52500
1007.60;  890.675;  417.150;  904.800;473.52500
1008.14;  889.008;  437.483;  919.467;451.52500
1008.69;  942.675;  484.483;  941.800;458.19167
1009.23;  931.008;  460.483;  901.467;470.52500
1009.78;  922.675;  427.817;  859.133;494.85833
1010.32;  852.342;  386.483;  802.467;465.85833
1010.87;  873.675;  401.150;  791.800;472.52500
1011.41;  877.008;  414.483;  822.133;462.52500
1011.96;  864.008;  401.817;  803.800;462.19167
1012.50;  829.675;  394.150;  830.800;435.52500
1013.05;  815.342;  374.817;  807.133;440.52500
1013.59;  816.008;  386.817;  794.467;429.19167
1014.13;  849.675;  418.817;  788.133;430.85833
1014.68;  831.675;  461.817;  783.800;369.85833
1015.22;  816.342;  449.817;  788.133;366.52500
1015.77;  794.675;  440.817;  795.133;353.85833
1016.31;  805.008;  428.150;  807.467;376.85833
1016.85;  857.342;  433.483;  821.467;423.85833
1017.40;  837.675;  401.817;  793.133;435.85833
1017.94;  812.675;  367.150;  769.133;445.52500
1018.49;  765.675;  371.483;  766.800;394.19167
1019.03;  767.342;  381.150;  768.467;386.19167
1019.57;  759.675;  372.483;  754.800;387.19167
1020.12;  780.008;  391.150;  755.800;388.85833
1020.66;  776.342;  404.483;  753.133;371.85833
1021.20;  801.342;  435.483;  772.133;365.85833
1021.75;  770.008;  411.150;  759.133;358.85833
1022.29;  778.675;  400.817;  774.133;377.85833
1022.83;  785.008;  390.150;  785.800;394.85833
1023.38;  789.342;  394.817;  785.800;394.52500
1023.92;  748.675;  394.150;  764.133;354.52500
1024.46;  687.008;  384.483;  721.800;302.52500
1025.01;  632.008;  366.483;  688.467;265.52500
1025.55;  629.008;  348.483;  676.800;280.52500
1026.09;  625.675;  346.150;  678.800;279.52500
1026.64;  672.675;  381.817;  714.800;290.85833
1027.18;  706.008;  432.483;  744.467;273.52500
1027.72;  728.675;  436.817;  759.800;291.85833
1028.27;  697.675;  399.817;  729.133;297.85833
1028.81;  774.675;  491.817;  804.800;282.85833
1029.35;  766.675;  496.483;  790.133;270.19167
1029.89;  773.342;  517.150;  797.800;256.19167
1030.44;  685.342;  394.817;  692.133;290.52500
1030.98;  670.008;  400.817;  684.133;269.19167
1031.52;  712.008;  421.483;  692.467;290.52500
1032.07;  682.675;  425.150;  705.800;257.52500
1032.61;  695.342;  446.150;  701.467;249.19167
1033.15;  643.342;  431.817;  674.800;211.52500
1033.69;  654.342;  418.817;  656.133;235.52500
1034.23;  649.342;  402.483;  659.800;246.85833
1034.78;  654.008;  393.483;  665.133;260.52500
1035.32;  649.008;  381.817;  652.800;267.19167
1035.86;  734.342;  457.483;  735.467;276.85833
1036.40;  785.675;  486.483;  744.800;299.19167
1036.95;  796.342;  519.817;  752.800;276.52500
1037.49;  662.675;  419.817;  652.800;242.85833
1038.03;  714.342;  491.817;  731.800;222.52500
1038.57;  698.342;  496.150;  746.467;202.19167
1039.11;  730.008;  495.483;  771.133;234.52500
1039.66;  637.342;  405.483;  712.467;231.85833
1040.20;  665.342;  413.483;  731.133;251.85833
1040.74;  657.008;  432.150;  697.800;224.85833
1041.28;  645.008;  433.817;  650.467;211.19167
1041.82;  584.008;  405.483;  581.467;178.52500
1042.36;  568.342;  393.817;  562.133;174.52500
1042.91;  549.008;  383.150;  543.467;165.85833
1043.45;  577.675;  384.483;  559.467;193.19167
1043.99;  644.342;  393.817;  609.133;250.52500
1044.53;  684.342;  401.483;  653.467;282.85833
1045.07;  694.342;  393.150;  665.133;301.19167
1045.61;  758.008;  462.483;  750.467;295.52500
1046.15;  767.675;  453.817;  729.800;313.85833
1046.69;  735.008;  446.483;  681.800;288.52500
1047.24;  611.675;  363.150;  552.800;248.52500
1047.78;  552.008;  370.483;  534.467;181.52500
1048.32;  550.675;  387.817;  577.133;162.85833
1048.86;  559.675;  406.817;  586.133;152.85833
1049.40;  587.342;  397.150;  602.133;190.19167
1049.94;  633.675;  389.483;  605.800;244.19167
1050.48;  680.342;  388.483;  627.133;291.85833
1051.02;  710.342;  375.817;  637.133;334.52500
1051.56;  710.675;  391.150;  656.133;319.52500
1052.10;  668.008;  389.483;  640.133;278.52500
1052.64;  622.008;  400.817;  600.800;221.19167
1053.18;  593.342;  406.483;  584.133;186.85833
1053.72;  583.675;  414.817;  571.133;168.85833
1054.26;  590.342;  433.817;  586.467;156.52500
1054.81;  573.675;  439.483;  571.133;134.19167
1055.35;  585.342;  413.817;  586.800;171.52500
1055.89;  599.008;  384.150;  599.133;214.85833
1056.43;  726.342;  427.817;  687.467;298.52500
1056.97;  779.675;  446.150;  711.800;333.52500
1057.51;  810.008;  452.817;  724.133;357.19167
1058.05;  715.675;  377.817;  627.133;337.85833
1058.59;  691.675;  389.483;  605.467;302.19167
1059.13;  658.008;  410.150;  584.467;247.85833
1059.67;  632.008;  430.150;  587.467;201.85833
1060.21;  600.675;  421.483;  583.467;179.19167
1060.75;  568.342;  397.817;  550.133;170.52500
1061.29;  564.342;  390.817;  538.467;173.52500
1061.82;  561.342;  383.817;  536.800;177.52500
1062.36;  571.675;  391.150;  563.133;180.52500
1062.90;  558.008;  379.483;  566.467;178.52500
1063.44;  575.342;  383.150;  561.133;192.19167
1063.98;  626.008;  380.483;  571.800;245.52500
1064.52;  652.675;  380.483;  562.467;272.19167
1065.06;  649.675;  358.817;  563.467;290.85833
1065.60;  625.342;  378.817;  578.467;246.52500
1066.14;  616.675;  373.150;  610.467;243.52500
1066.68;  620.675;  389.817;  621.133;230.85833
1067.22;  620.008;  371.150;  629.133;248.85833
1067.76;  622.342;  387.150;  622.133;235.19167
1068.30;  614.342;  373.817;  597.800;240.52500
1068.84;  590.008;  377.150;  576.467;212.85833
1069.37;  572.675;  379.483;  562.467;193.19167
1069.91;  520.342;  381.483;  551.133;138.85833
1070.45;  529.675;  399.483;  544.467;130.19167
1070.99;  749.008;  612.150;  757.133;136.85833
1071.53;  794.675;  650.483;  805.800;144.19167
1072.07;  803.342;  634.817;  801.467;168.52500
1072.61;  614.675;  419.817;  606.467;194.85833
1073.15;  620.675;  399.483;  587.133;221.19167
1073.68;  641.008;  414.483;  625.467;226.52500
1074.22;  647.008;  413.483;  632.467;233.52500
1074.76;  622.008;  402.817;  628.133;219.19167
1075.30;  587.675;  391.483;  603.133;196.19167
1075.84;  591.342;  416.150;  602.800;175.19167
1076.38;  665.675;  475.150;  648.800;190.52500
1076.91;  696.675;  481.150;  647.800;215.52500
1077.45;  691.008;  470.483;  644.133;220.52500
1077.99;  627.675;  427.483;  610.800;200.19167
1078.53;  590.008;  405.817;  593.133;184.19167
1079.07;  551.008;  388.483;  563.467;162.52500
1079.60;  530.008;  375.483;  528.467;154.52500
1080.14;  534.008;  382.817;  537.467;151.19167
1080.68;  568.342;  403.483;  585.467;164.85833
1081.22;  640.675;  429.150;  663.800;211.52500
1081.76;  699.008;  483.150;  724.800;215.85833
1082.29;  721.342;  481.817;  743.467;239.52500
1082.83;  695.342;  455.483;  711.467;239.85833
1083.37;  668.675;  435.150;  686.133;233.52500
1083.91;  633.342;  427.483;  634.467;205.85833
1084.44;  582.675;  430.483;  580.800;152.19167
1084.98;  549.008;  417.817;  540.800;131.19167
1085.52;  508.675;  422.483;  518.800;86.19167
1086.05;  484.675;  421.150;  500.133;63.52500
1086.59;  469.675;  412.150;  467.800;57.52500
1087.13;  509.008;  400.483;  497.133;108.52500
1087.67;  571.342;  394.817;  554.467;176.52500
1088.20;  644.675;  393.150;  624.133;251.52500
1088.74;  708.008;  405.150;  682.133;302.85833
1089.28;  774.008;  400.483;  727.467;373.52500
1089.81;  831.675;  413.817;  784.133;417.85833
1090.35;  859.675;  421.483;  832.133;438.19167
1090.89;  873.675;  422.817;  848.133;450.85833
1091.42;  869.342;  426.817;  822.467;442.52500
1091.96;  845.008;  413.817;  776.467;431.19167
1092.50;  804.342;  426.483;  736.133;377.85833
1093.03;  758.342;  425.817;  722.133;332.52500
1093.57;  728.675;  435.150;  665.467;293.52500
1094.11;  696.008;  423.817;  620.133;272.19167
1094.64;  686.342;  445.817;  594.467;240.52500
1095.18;  644.008;  460.817;  580.800;183.19167
1095.72;  583.008;  463.817;  565.133;119.19167
1096.25;  515.675;  416.483;  516.800;99.19167
1096.79;  482.675;  373.483;  498.133;109.19167
1097.33;  507.008;  385.817;  493.133;121.19167
1097.86;  503.008;  402.817;  516.133;100.19167
1098.40;  523.675;  407.150;  526.467;116.52500
1098.93;  522.008;  388.817;  531.133;133.19167
1099.47;  557.675;  371.817;  549.800;185.85833
1100.01;  600.675;  386.483;  568.467;214.19167

