Al grating minus dark 35.6 deg
Integration time [ms]: 500.000
Averaging Nr. [scans]: 1
Smoothing Nr. [pixels]: 1
Data measured with spectrometer [name]: 7413129SP
Wave   ;Sample   ;Dark     ;Reference;Scope Corrected for Dark
[nm]   ;[counts] ;[counts] ;[counts] 

 175.41;  590.817;  633.150;  566.932;-42.33359
 176.01;  624.065;  629.483;  615.663;-5.41810
 176.61;  660.379;  650.483;  662.269; 9.89621
 177.21;  677.169;  668.484;  679.992; 8.68543
 177.81;  713.477;  702.150;  724.578;11.32674
 178.41;  681.263;  649.484;  675.957;31.77945
 179.01;  575.615;  555.152;  600.735;20.46247
 179.61;  526.377;  522.819;  537.037; 3.55755
 180.21;  565.149;  575.152;  594.982;-10.00292
 180.81;  661.512;  664.817;  669.022;-3.30506
 181.42;  684.121;  691.150;  682.508;-7.02878
 182.02;  623.874;  642.484;  619.446;-18.60987
 182.62;  608.413;  612.817;  575.710;-4.40331
 183.22;  612.858;  626.482;  609.675;-13.62411
 183.82;  629.691;  650.148;  629.148;-20.45664
 184.42;  581.718;  616.139;  630.905;-34.42163
 185.02;  609.617;  623.787;  658.936;-14.17040
 185.62;  612.956;  593.444;  667.908;19.51281
 186.22;  613.336;  594.777;  646.056;18.55929
 186.82;  583.190;  534.445;  573.313;48.74523
 187.42;  578.171;  538.111;  552.586;40.05955
 188.02;  587.758;  540.109;  570.614;47.64859
 188.62;  552.688;  525.773;  571.618;26.91541
 189.22;  558.879;  553.104;  609.114; 5.77546
 189.82;  564.352;  568.770;  616.500;-4.41787
 190.43;  602.522;  603.101;  643.929;-0.57895
 191.03;  634.795;  628.097;  653.963; 6.69738
 191.63;  666.248;  645.762;  661.901;20.48664
 192.23;  638.702;  635.424;  649.452; 3.27752
 192.83;  576.507;  567.419;  590.339; 9.08796
 193.43;  558.480;  548.416;  582.477;10.06371
 194.03;  566.959;  555.745;  597.109;11.21327
 194.63;  639.293;  631.068;  666.731; 8.22454
 195.23;  644.676;  643.390;  661.787; 1.28601
 195.83;  677.323;  658.053;  664.619;19.27021
 196.43;  638.244;  620.721;  631.088;17.52270
 197.03;  611.342;  616.384;  652.902;-5.04195
 197.63;  573.618;  603.382;  636.333;-29.76405
 198.23;  637.946;  648.720;  703.145;-10.77416
 198.83;  642.035;  628.714;  686.878;13.32101
 199.43;  687.338;  680.034;  721.958; 7.30381
 200.03;  608.235;  630.036;  644.077;-21.80083
 200.63;  688.851;  695.393;  709.782;-6.54290
 201.23;  676.718;  677.418;  679.286;-0.70020
 201.83;  730.658;  697.430;  724.197;33.22777
 202.43;  648.991;  624.433;  652.638;24.55788
 203.03;  643.624;  612.768;  675.584;30.85580
 203.63;  614.076;  604.771;  647.068; 9.30424
 204.23;  626.263;  611.774;  649.383;14.48962
 204.83;  605.588;  591.772;  616.636;13.81611
 205.43;  588.349;  577.106;  601.601;11.24347
 206.03;  618.367;  598.776;  644.766;19.59154
 206.63;  606.731;  588.111;  643.250;18.62057
 207.23;  619.899;  603.110;  655.060;16.78910
 207.83;  596.065;  613.109;  626.863;-17.04449
 208.43;  636.349;  666.444;  668.096;-30.09470
 209.03;  653.773;  681.778;  690.048;-28.00490
 209.63;  643.385;  646.442;  672.823;-3.05717
 210.22;  676.203;  635.776;  675.966;40.42618
 210.82;  650.048;  618.112;  667.251;31.93539
 211.42;  651.092;  627.444;  674.338;23.64803
 212.02;  601.931;  599.775;  642.440; 2.15573
 212.62;  590.506;  598.110;  627.206;-7.60340
 213.22;  567.794;  582.778;  621.449;-14.98377
 213.82;  590.823;  597.443;  645.152;-6.62030
 214.42;  611.826;  588.108;  640.775;23.71781
 215.02;  632.236;  602.108;  646.016;30.12721
 215.62;  628.912;  621.777;  642.434; 7.13511
 216.22;  663.306;  669.445;  709.679;-6.13962
 216.82;  639.753;  648.112;  669.042;-8.35886
 217.42;  654.457;  648.779;  687.492; 5.67812
 218.02;  648.483;  636.446;  660.573;12.03681
 218.62;  682.148;  660.446;  709.570;21.70242
 219.21;  626.450;  607.779;  653.136;18.67072
 219.81;  577.924;  558.445;  612.195;19.47951
 220.41;  548.599;  527.445;  584.552;21.15357
 221.01;  588.330;  557.779;  618.090;30.55134
 221.61;  607.015;  589.779;  628.480;17.23597
 222.21;  586.965;  601.445;  608.989;-14.48035
 222.81;  546.452;  574.778;  566.755;-28.32555
 223.41;  525.807;  556.111;  547.155;-30.30442
 224.01;  607.345;  620.445;  623.137;-13.10053
 224.61;  642.800;  631.779;  660.856;11.02096
 225.20;  646.588;  616.778;  657.851;29.80967
 225.80;  652.002;  605.444;  660.052;46.55824
 226.40;  651.791;  615.444;  656.438;36.34640
 227.00;  654.717;  611.779;  660.261;42.93856
 227.60;  560.132;  539.447;  567.573;20.68496
 228.20;  564.324;  571.448;  623.181;-7.12382
 228.80;  546.248;  575.113;  621.885;-28.86494
 229.40;  585.199;  616.111;  662.010;-30.91193
 229.99;  539.197;  550.111;  576.670;-10.91404
 230.59;  539.303;  563.113;  583.060;-23.81001
 231.19;  582.213;  601.114;  626.828;-18.90141
 231.79;  634.333;  650.445;  681.100;-16.11215
 232.39;  661.508;  649.110;  670.879;12.39871
 232.99;  661.159;  642.110;  655.495;19.04953
 233.59;  589.516;  577.776;  584.902;11.73944
 234.18;  582.799;  578.776;  621.078; 4.02312
 234.78;  594.651;  589.444;  648.995; 5.20694
 235.38;  629.710;  610.112;  689.237;19.59783
 235.98;  653.228;  613.780;  683.488;39.44832
 236.58;  624.380;  604.445;  661.581;19.93433
 237.18;  609.074;  619.109;  652.893;-10.03498
 237.77;  610.299;  646.441;  672.497;-36.14113
 238.37;  590.004;  627.442;  653.005;-37.43804
 238.97;  587.914;  601.110;  614.107;-13.19611
 239.57;  535.727;  542.441;  536.463;-6.71377
 240.17;  529.894;  517.105;  520.882;12.78864
 240.76;  560.400;  546.105;  558.708;14.29578
 241.36;  567.411;  569.438;  573.742;-2.02698
 241.96;  590.962;  596.104;  597.709;-5.14214
 242.56;  684.080;  695.435;  703.307;-11.35499
 243.16;  700.302;  713.433;  734.901;-13.13097
 243.76;  687.489;  706.099;  724.771;-18.61009
 244.35;  585.327;  604.432;  617.924;-19.10506
 244.95;  582.778;  591.766;  611.630;-8.98780
 245.55;  558.341;  570.100;  589.358;-11.75855
 246.15;  554.036;  573.767;  589.779;-19.73108
 246.74;  574.716;  585.435;  598.877;-10.71896
 247.34;  596.438;  607.769;  620.718;-11.33069
 247.94;  584.895;  594.101;  600.056;-9.20548
 248.54;  520.010;  553.768;  562.752;-33.75804
 249.14;  505.920;  535.768;  575.134;-29.84784
 249.73;  538.583;  585.103;  635.511;-46.51929
 250.33;  584.653;  595.106;  660.840;-10.45278
 250.93;  648.114;  640.775;  686.297; 7.33905
 251.53;  625.817;  593.776;  649.468;32.04108
 252.12;  620.937;  610.777;  660.848;10.16046
 252.72;  545.685;  555.444;  614.103;-9.75925
 253.32;  585.329;  593.112;  644.420;-7.78304
 253.92;  547.615;  555.778;  608.272;-8.16286
 254.51;  571.926;  571.110;  628.811; 0.81551
 255.11;  548.762;  533.776;  592.627;14.98615
 255.71;  583.187;  553.443;  598.583;29.74367
 256.31;  572.457;  548.111;  567.438;24.34640
 256.90;  524.350;  518.112;  540.153; 6.23809
 257.50;  565.087;  555.111;  582.988; 9.97609
 258.10;  573.261;  569.775;  617.097; 3.48590
 258.69;  577.179;  589.442;  625.505;-12.26212
 259.29;  529.747;  560.776;  600.247;-31.02864
 259.89;  534.495;  545.111;  581.556;-10.61663
 260.49;  528.307;  525.778;  587.349; 2.52810
 261.08;  535.705;  535.777;  590.833;-0.07251
 261.68;  533.409;  539.109;  597.563;-5.70059
 262.28;  555.503;  581.442;  619.808;-25.93829
 262.87;  558.346;  577.107;  618.645;-18.76131
 263.47;  516.043;  532.108;  572.072;-16.06507
 264.07;  526.731;  516.443;  563.197;10.28884
 264.67;  520.521;  505.443;  536.919;15.07806
 265.26;  533.962;  541.775;  574.204;-7.81363
 265.86;  515.781;  554.776;  591.021;-38.99484
 266.46;  523.204;  556.110;  617.303;-32.90610
 267.05;  548.124;  561.775;  607.664;-13.65039
 267.65;  555.744;  535.106;  562.462;20.63807
 268.25;  544.002;  522.106;  538.557;21.89640
 268.84;  511.196;  497.105;  512.448;14.09028
 269.44;  518.562;  492.437;  521.831;26.12464
 270.04;  524.495;  511.770;  539.953;12.72475
 270.63;  562.567;  557.771;  600.181; 4.79659
 271.23;  566.762;  589.770;  613.408;-23.00847
 271.83;  574.055;  586.102;  608.893;-12.04701
 272.42;  572.712;  564.435;  577.863; 8.27682
 273.02;  547.249;  528.769;  555.508;18.47966
 273.62;  507.673;  503.103;  531.130; 4.57051
 274.21;  474.429;  489.770;  514.411;-15.34075
 274.81;  477.167;  484.769;  515.916;-7.60169
 275.41;  487.653;  483.101;  524.345; 4.55204
 276.00;  511.644;  492.101;  550.648;19.54254
 276.60;  530.344;  525.767;  568.698; 4.57690
 277.20;  545.734;  547.100;  568.546;-1.36605
 277.79;  537.460;  541.102;  559.788;-3.64184
 278.39;  533.769;  544.434;  567.324;-10.66452
 278.98;  546.647;  552.432;  602.884;-5.78441
 279.58;  548.040;  560.767;  607.459;-12.72686
 280.18;  530.764;  544.102;  591.028;-13.33808
 280.77;  547.146;  555.769;  588.182;-8.62282
 281.37;  529.461;  528.769;  565.125; 0.69255
 281.96;  571.346;  556.101;  600.092;15.24407
 282.56;  597.691;  582.102;  616.463;15.58902
 283.16;  618.153;  613.769;  647.539; 4.38457
 283.75;  587.425;  584.768;  593.011; 2.65663
 284.35;  549.759;  546.767;  557.290; 2.99158
 284.94;  589.106;  589.099;  599.280; 0.00692
 285.54;  608.521;  604.766;  637.205; 3.75493
 286.14;  705.033;  695.768;  732.159; 9.26520
 286.73;  686.815;  691.770;  708.243;-4.95565
 287.33;  701.554;  726.104;  711.141;-24.54942
 287.92;  624.169;  653.437;  651.643;-29.26785
 288.52;  651.630;  646.103;  665.992; 5.52720
 289.12;  599.181;  593.767;  637.905; 5.41365
 289.71;  567.589;  581.100;  609.086;-13.51079
 290.31;  563.325;  577.435;  605.695;-14.10934
 290.90;  591.082;  577.103;  630.034;13.97885
 291.50;  553.861;  537.436;  609.003;16.42578
 292.09;  542.527;  504.102;  561.666;38.42472
 292.69;  534.465;  500.437;  531.859;34.02850
 293.28;  565.929;  527.103;  548.884;38.82672
 293.88;  509.389;  484.768;  504.897;24.62071
 294.48;  530.021;  528.768;  549.119; 1.25252
 295.07;  535.406;  552.767;  577.230;-17.36077
 295.67;  538.144;  582.434;  626.788;-44.28999
 296.26;  489.423;  519.103;  569.058;-29.68042
 296.86;  449.012;  462.104;  480.867;-13.09249
 297.45;  467.580;  486.103;  495.167;-18.52246
 298.05;  497.851;  528.101;  536.249;-30.24985
 298.64;  543.956;  580.101;  613.248;-36.14526
 299.24;  541.460;  565.102;  584.455;-23.64184
 299.83;  548.504;  566.769;  574.259;-18.26519
 300.43;  535.820;  560.769;  544.539;-24.94876
 301.02;  559.833;  594.435;  593.246;-34.60275
 301.62;  546.758;  584.435;  600.011;-37.67670
 302.21;  517.285;  539.768;  586.234;-22.48282
 302.81;  520.420;  529.100;  572.940;-8.68037
 303.40;  535.356;  517.433;  561.072;17.92291
 304.00;  576.157;  571.434;  593.162; 4.72269
 304.59;  555.135;  549.101;  574.761; 6.03489
 305.19;  600.659;  621.435;  658.029;-20.77601
 305.78;  598.728;  602.770;  640.967;-4.04228
 306.38;  685.533;  676.437;  710.740; 9.09612
 306.97;  617.489;  596.769;  628.212;20.72002
 307.57;  612.509;  580.433;  646.501;32.07665
 308.16;  506.853;  492.431;  566.814;14.42215
 308.76;  576.607;  554.431;  634.423;22.17545
 309.35;  623.913;  617.765;  653.669; 6.14798
 309.95;  604.683;  611.430;  636.944;-6.74688
 310.54;  553.851;  577.098;  591.141;-23.24663
 311.14;  609.214;  621.101;  666.676;-11.88693
 311.73;  657.547;  672.769;  708.063;-15.22188
 312.33;  669.515;  679.101;  714.575;-9.58529
 312.92;  579.908;  607.434;  624.097;-27.52613
 313.52;  560.232;  580.102;  608.787;-19.87058
 314.11;  543.997;  578.768;  590.045;-34.77072
 314.70;  547.266;  587.768;  593.174;-40.50183
 315.30;  580.247;  603.769;  620.501;-23.52246
 315.89;  534.460;  536.103;  565.175;-1.64345
 316.49;  543.025;  533.103;  549.520; 9.92180
 317.08;  498.248;  499.769;  507.504;-1.52140
 317.68;  541.941;  540.103;  557.921; 1.83834
 318.27;  522.214;  510.102;  558.063;12.11146
 318.86;  517.816;  508.102;  561.859; 9.71368
 319.46;  522.821;  518.102;  576.209; 4.71896
 320.05;  511.242;  518.769;  561.821;-7.52668
 320.65;  514.805;  521.767;  549.105;-6.96194
 321.24;  528.770;  532.764;  554.886;-3.99358
 321.83;  558.639;  547.763;  593.803;10.87542
 322.43;  579.323;  545.432;  609.914;33.89177
 323.02;  568.122;  515.100;  583.384;53.02116
 323.62;  601.888;  555.436;  608.420;46.45219
 324.21;  648.136;  624.104;  663.206;24.03273
 324.80;  607.682;  622.770;  637.156;-15.08771
 325.40;  542.166;  553.435;  584.579;-11.26942
 325.99;  465.716;  456.435;  500.210; 9.28104
 326.59;  492.503;  468.769;  515.256;23.73375
 327.18;  507.703;  499.770;  521.557; 7.93342
 327.77;  527.267;  537.103;  532.565;-9.83572
 328.37;  517.274;  519.103;  533.255;-1.82832
 328.96;  534.143;  512.104;  530.559;22.03907
 329.55;  558.275;  542.104;  585.645;16.17112
 330.15;  571.396;  572.770;  601.641;-1.37350
 330.74;  548.736;  550.768;  580.274;-2.03222
 331.34;  511.869;  505.102;  526.360; 6.76650
 331.93;  509.753;  480.437;  500.715;29.31641
 332.52;  465.093;  455.437;  480.068; 9.65608
 333.12;  491.167;  490.104;  496.636; 1.06337
 333.71;  470.385;  484.438;  509.991;-14.05340
 334.30;  466.312;  474.106;  503.817;-7.79351
 334.90;  421.309;  413.106;  471.140; 8.20332
 335.49;  406.026;  395.105;  454.577;10.92125
 336.08;  446.265;  434.437;  478.278;11.82723
 336.68;  505.660;  496.438;  532.140; 9.22183
 337.27;  522.652;  522.771;  561.116;-0.11889
 337.86;  571.956;  574.438;  632.689;-2.48181
 338.46;  570.453;  568.770;  619.152; 1.68249
 339.05;  597.563;  595.104;  626.834; 2.45903
 339.64;  542.935;  546.772;  573.679;-3.83682
 340.24;  483.858;  486.439;  541.101;-2.58061
 340.83;  453.789;  472.772;  514.883;-18.98261
 341.42;  486.662;  487.106;  533.534;-0.44433
 342.01;  559.845;  552.440;  577.781; 7.40510
 342.61;  618.433;  585.108;  615.253;33.32532
 343.20;  556.368;  557.774;  567.049;-1.40579
 343.79;  532.114;  561.441;  563.630;-29.32762
 344.39;  505.258;  538.445;  565.195;-33.18716
 344.98;  557.615;  576.445;  600.272;-18.82953
 345.57;  545.514;  559.443;  569.229;-13.92934
 346.16;  548.793;  567.111;  558.779;-18.31816
 346.76;  534.935;  534.112;  548.228; 0.82341
 347.35;  522.561;  510.778;  547.767;11.78326
 347.94;  492.114;  449.778;  492.408;42.33689
 348.54;  494.556;  464.110;  496.697;30.44625
 349.13;  501.264;  461.777;  497.828;39.48746
 349.72;  527.900;  499.445;  539.784;28.45521
 350.31;  514.013;  477.779;  522.807;36.23386
 350.91;  548.143;  517.444;  552.499;30.69874
 351.50;  538.107;  510.444;  545.051;27.66283
 352.09;  520.987;  503.112;  523.393;17.87517
 352.68;  468.067;  471.779;  490.311;-3.71226
 353.28;  438.276;  457.778;  479.252;-19.50253
 353.87;  443.780;  443.778;  500.072; 0.00250
 354.46;  470.775;  453.778;  501.055;16.99722
 355.05;  483.855;  468.779;  501.697;15.07590
 355.65;  522.343;  522.447;  547.517;-0.10425
 356.24;  547.471;  545.446;  576.869; 2.02519
 356.83;  562.850;  572.446;  594.347;-9.59605
 357.42;  565.593;  543.446;  583.589;22.14668
 358.01;  588.359;  567.448;  605.291;20.91104
 358.61;  566.041;  522.117;  591.726;43.92422
 359.20;  547.753;  540.115;  592.483; 7.63793
 359.79;  494.591;  493.115;  546.636; 1.47629
 360.38;  531.990;  525.448;  580.844; 6.54179
 360.97;  540.865;  540.116;  589.169; 0.74885
 361.57;  499.092;  509.450;  553.220;-10.35840
 362.16;  450.082;  471.117;  507.190;-21.03458
 362.75;  412.706;  422.450;  450.389;-9.74350
 363.34;  453.278;  445.783;  497.087; 7.49475
 363.93;  465.057;  465.780;  529.335;-0.72338
 364.53;  510.018;  504.444;  580.103; 5.57408
 365.12;  506.450;  508.109;  576.361;-1.65939
 365.71;  511.796;  503.776;  566.068; 8.01995
 366.30;  549.434;  560.776;  607.977;-11.34190
 366.89;  578.247;  587.442;  630.387;-9.19451
 367.48;  600.311;  624.775;  640.255;-24.46445
 368.08;  564.516;  583.778;  621.290;-19.26217
 368.67;  614.015;  654.779;  716.480;-40.76403
 369.26;  623.819;  656.446;  751.916;-32.62669
 369.85;  640.478;  663.782;  746.667;-23.30397
 370.44;  550.239;  560.449;  627.966;-10.20995
 371.03;  566.848;  554.114;  622.394;12.73356
 371.62;  556.685;  559.114;  624.547;-2.42808
 372.22;  610.370;  604.779;  672.884; 5.59149
 372.81;  578.142;  591.111;  635.829;-12.96898
 373.40;  531.681;  532.112;  597.147;-0.43069
 373.99;  502.678;  498.113;  556.857; 4.56453
 374.58;  514.189;  513.113;  610.364; 1.07590
 375.17;  539.876;  540.443;  625.653;-0.56748
 375.76;  572.704;  587.777;  692.497;-15.07357
 376.35;  560.166;  547.114;  660.681;13.05210
 376.95;  550.174;  544.114;  662.037; 6.05950
 377.54;  558.733;  534.112;  664.311;24.62107
 378.13;  569.250;  557.778;  674.505;11.47211
 378.72;  570.386;  558.112;  692.601;12.27400
 379.31;  524.834;  506.448;  630.351;18.38649
 379.90;  532.240;  523.449;  659.636; 8.79111
 380.49;  523.514;  515.116;  654.782; 8.39862
 381.08;  507.353;  517.782;  691.605;-10.42863
 381.67;  512.973;  524.781;  709.124;-11.80845
 382.26;  562.589;  558.448;  776.296; 4.14084
 382.86;  631.699;  613.448;  868.645;18.25071
 383.45;  605.847;  584.448;  859.724;21.39917
 384.04;  579.967;  563.778;  840.662;16.18843
 384.63;  556.606;  551.445;  805.242; 5.16096
 385.22;  568.498;  555.779;  824.953;12.71826
 385.81;  548.897;  518.446;  819.161;30.45043
 386.40;  527.015;  497.780;  826.867;29.23436
 386.99;  510.193;  454.779;  829.044;55.41345
 387.58;  519.357;  478.777;  885.120;40.57937
 388.17;  516.198;  454.443;  902.619;61.75529
 388.76;  550.318;  503.777;  981.999;46.54133
 389.35;  546.065;  494.111;  956.584;51.95390
 389.94;  587.143;  541.778; 1048.832;45.36541
 390.53;  610.849;  571.108; 1091.515;39.74105
 391.12;  608.184;  554.102; 1137.636;54.08188
 391.71;  608.275;  528.765; 1128.426;79.50984
 392.30;  574.344;  489.764; 1131.590;84.58012
 392.89;  598.936;  521.092; 1217.527;77.84433
 393.48;  565.251;  523.750; 1218.143;41.50163
 394.07;  615.827;  592.740; 1313.197;23.08710
 394.66;  648.553;  655.395; 1380.617;-6.84192
 395.25;  658.478;  630.048; 1449.557;28.42983
 395.84;  600.708;  519.032; 1416.022;81.67572
 396.43;  560.587;  423.681; 1384.322;136.90688
 397.02;  571.913;  454.661; 1416.590;117.25162
 397.61;  606.220;  505.306; 1485.081;100.91335
 398.20;  615.025;  544.616; 1557.984;70.40872
 398.79;  701.057;  618.597; 1658.380;82.46026
 399.38;  661.851;  594.249; 1669.574;67.60208
 399.97;  672.708;  599.570; 1702.352;73.13794
 400.56;  567.577;  491.562; 1669.000;76.01499
 401.15;  597.095;  504.561; 1744.530;92.53375
 401.74;  614.337;  502.900; 1839.460;111.43752
 402.33;  688.975;  543.245; 1975.801;145.72946
 402.92;  695.431;  538.599; 2033.229;156.83214
 403.51;  682.561;  539.954; 2115.400;142.60727
 404.10;  651.320;  537.304; 2187.955;114.01587
 404.69;  669.492;  574.983; 2305.267;94.50853
 405.28;  677.750;  535.991; 2377.635;141.75987
 405.87;  673.401;  504.327; 2506.026;169.07414
 406.46;  704.264;  498.994; 2672.647;205.26958
 407.05;  728.110;  506.325; 2836.107;221.78467
 407.64;  743.574;  509.655; 2982.358;233.91944
 408.23;  745.721;  490.986; 3109.046;254.73512
 408.82;  790.878;  538.320; 3313.876;252.55814
 409.41;  796.360;  530.990; 3467.454;265.36949
 410.00;  808.136;  526.659; 3701.520;281.47669
 410.59;  800.715;  489.659; 3843.245;311.05673
 411.18;  804.093;  496.325; 4050.053;307.76777
 411.76;  780.439;  462.657; 4211.706;317.78206
 412.35;  816.795;  497.657; 4527.110;319.13757
 412.94;  887.080;  510.327; 4824.733;376.75348
 413.53;  953.731;  533.662; 5114.737;420.06936
 414.12;  954.855;  484.999; 5371.904;469.85641
 414.71;  994.733;  481.336; 5724.680;513.39676
 415.30; 1010.061;  447.002; 6226.996;563.05815
 415.89; 1082.274;  472.002; 6849.950;610.27210
 416.48; 1224.477;  566.335; 7551.538;658.14216
 417.07; 1352.809;  631.335; 8130.868;721.47444
 417.65; 1401.297;  610.337; 8636.078;790.96040
 418.24; 1395.480;  551.339; 9044.043;844.14050
 418.83; 1415.687;  532.340; 9413.697;883.34650
 419.42; 1484.438;  538.007; 9742.299;946.43102
 420.01; 1503.144;  485.675;10025.144;1017.46850
 420.60; 1544.210;  496.011;10283.073;1048.19906
 421.19; 1564.202;  522.677;10475.383;1041.52500
 421.78; 1601.498;  561.344;10619.265;1040.15469
 422.36; 1574.519;  538.677;10739.329;1035.84143
 422.95; 1583.087;  545.010;10800.017;1038.07651
 423.54; 1592.320;  530.678;10912.422;1061.64226
 424.13; 1675.371;  567.346;10971.304;1108.02470
 424.72; 1706.391;  568.014;10959.755;1138.37649
 425.31; 1739.318;  570.017;11048.298;1169.30038
 425.89; 1705.873;  533.351;11163.332;1172.52118
 426.48; 1674.547;  491.017;11435.302;1183.53018
 427.07; 1592.008;  447.348;11494.264;1144.66017
 427.66; 1659.182;  500.347;11800.093;1158.83504
 428.25; 1717.479;  524.016;12084.087;1193.46257
 428.84; 1864.050;  586.352;12479.893;1277.69760
 429.42; 1830.908;  521.020;12653.830;1309.88776
 430.01; 1905.356;  545.020;12903.860;1360.33519
 430.60; 1944.616;  545.021;13185.015;1399.59402
 431.19; 2078.353;  557.690;13601.961;1520.66319
 431.78; 2139.746;  543.692;13918.203;1596.05408
 432.36; 2220.860;  568.360;14212.952;1652.49990
 432.95; 2262.341;  574.361;14532.086;1687.98008
 433.54; 2360.090;  631.027;14965.624;1729.06304
 434.13; 2388.503;  555.359;15230.821;1833.14388
 434.72; 2411.543;  521.692;15434.616;1889.85069
 435.30; 2475.421;  524.027;15619.950;1951.39425
 435.89; 2508.121;  549.027;15977.391;1959.09473
 436.48; 2576.528;  557.360;16364.622;2019.16762
 437.07; 2577.973;  452.696;16561.696;2125.27694
 437.66; 2645.832;  433.698;16749.027;2212.13427
 438.24; 2684.746;  478.033;16852.142;2206.71376
 438.83; 2783.261;  542.033;17214.050;2241.22774
 439.42; 2817.694;  551.701;17449.365;2265.99372
 440.01; 2932.564;  546.700;17721.619;2385.86377
 440.59; 2994.843;  620.366;17964.781;2374.47656
 441.18; 3072.351;  649.700;18310.335;2422.65087
 441.77; 3086.031;  627.035;18516.763;2458.99527
 442.36; 3108.126;  520.702;18620.731;2587.42369
 442.94; 3128.260;  433.036;18706.821;2695.22347
 443.53; 3167.821;  437.372;18989.596;2730.44899
 444.12; 3203.992;  431.373;19333.804;2772.61908
 444.70; 3292.379;  492.038;19781.584;2800.34018
 445.29; 3404.114;  516.705;20089.469;2887.40885
 445.88; 3500.781;  508.708;20302.577;2992.07230
 446.47; 3536.317;  496.711;20580.272;3039.60580
 447.05; 3620.330;  493.044;20987.649;3127.28620
 447.64; 3653.281;  499.377;21295.824;3153.90322
 448.23; 3753.688;  535.044;21513.726;3218.64383
 448.81; 3792.305;  517.711;21835.568;3274.59418
 449.40; 3899.720;  553.711;22313.160;3346.00886
 449.99; 4009.006;  539.381;22762.120;3469.62583
 450.58; 4092.115;  578.716;22937.850;3513.39864
 451.16; 4062.391;  562.049;23249.669;3500.34159
 451.75; 4088.412;  565.382;23311.402;3523.02939
 452.34; 4134.068;  540.049;23432.036;3594.01882
 452.92; 4249.611;  560.715;23515.980;3688.89628
 453.51; 4293.240;  518.383;23905.579;3774.85663
 454.10; 4343.177;  526.051;24454.435;3817.12603
 454.68; 4427.562;  496.385;24789.933;3931.17779
 455.27; 4372.154;  494.386;24853.082;3877.76784
 455.86; 4468.492;  474.054;24772.819;3994.43818
 456.44; 4443.769;  445.722;24809.362;3998.04725
 457.03; 4583.222;  481.389;25059.741;4101.83329
 457.62; 4515.910;  483.723;25205.475;4032.18776
 458.20; 4543.870;  479.389;25464.681;4064.48094
 458.79; 4630.637;  436.056;25830.333;4194.58131
 459.38; 4764.547;  442.057;26369.102;4322.48990
 459.96; 4980.341;  508.391;27035.171;4471.95001
 460.55; 5060.053;  570.725;27463.982;4489.32877
 461.13; 5118.082;  530.391;27557.073;4587.69062
 461.72; 5054.288;  471.392;27295.057;4582.89557
 462.31; 5026.209;  413.060;27230.196;4613.14912
 462.89; 5159.929;  471.727;27676.364;4688.20194
 463.48; 5273.304;  481.727;28258.162;4791.57648
 464.07; 5379.602;  491.727;28530.051;4887.87495
 464.65; 5388.885;  478.060;28743.890;4910.82424
 465.24; 5594.719;  533.394;29021.420;5061.32449
 465.82; 5729.224;  580.063;29213.351;5149.16069
 466.41; 5837.646;  577.065;29306.354;5260.58116
 467.00; 5750.049;  542.731;29247.518;5207.31810
 467.58; 5824.453;  538.396;29597.022;5286.05716
 468.17; 5867.705;  556.064;29983.484;5311.64087
 468.75; 6035.059;  531.399;30137.939;5503.66039
 469.34; 6012.059;  501.400;30161.993;5510.65878
 469.93; 5982.741;  453.069;30029.427;5529.67197
 470.51; 5966.300;  431.070;30127.142;5535.23032
 471.10; 6139.254;  510.403;30314.664;5628.85156
 471.68; 6201.174;  534.736;30657.742;5666.43794
 472.27; 6244.767;  593.735;30874.511;5651.03171
 472.85; 6246.130;  599.734;31149.884;5646.39623
 473.44; 6307.145;  560.067;30683.931;5747.07769
 474.02; 6246.483;  531.069;30627.999;5715.41364
 474.61; 6234.103;  463.735;30616.184;5770.36716
 475.20; 6241.299;  498.401;31127.418;5742.89754
 475.78; 6285.803;  465.402;31058.292;5820.40096
 476.37; 6279.738;  451.072;30645.861;5828.66663
 476.95; 6460.833;  480.074;30421.547;5980.75905
 477.54; 6456.916;  480.406;30450.089;5976.50973
 478.12; 6464.150;  460.407;30318.830;6003.74320
 478.71; 6423.009;  421.076;30373.492;6001.93281
 479.29; 6558.813;  469.742;30377.874;6089.07176
 479.88; 6605.838;  525.408;30756.952;6080.42939
 480.46; 6571.994;  550.409;30762.112;6021.58469
 481.05; 6530.549;  539.740;30692.705;5990.80870
 481.63; 6497.378;  481.406;30407.498;6015.97195
 482.22; 6467.643;  421.074;30092.334;6046.56834
 482.80; 6478.427;  437.075;30314.040;6041.35227
 483.39; 6642.288;  447.742;30103.654;6194.54560
 483.97; 6715.629;  474.411;30142.065;6241.21805
 484.56; 6720.051;  467.744;29545.347;6252.30679
 485.14; 6681.834;  498.745;29407.716;6183.08967
 485.73; 6658.162;  500.080;29079.420;6158.08277
 486.31; 6698.712;  504.747;29024.105;6193.96496
 486.90; 6693.439;  488.081;28892.296;6205.35851
 487.48; 6612.134;  481.414;28282.383;6130.71931
 488.07; 6482.296;  441.080;27880.843;6041.21589
 488.65; 6387.843;  464.411;27412.743;5923.43145
 489.24; 6384.857;  498.078;27220.120;5886.77852
 489.82; 6325.211;  482.413;26639.241;5842.79804
 490.41; 6321.771;  499.079;26195.902;5822.69134
 490.99; 6246.079;  484.746;25874.155;5761.33265
 491.57; 6294.068;  535.747;25518.508;5758.32047
 492.16; 6241.140;  530.748;25039.737;5710.39231
 492.74; 6208.507;  549.081;24590.177;5659.42612
 493.33; 6146.484;  561.416;24136.157;5585.06794
 493.91; 6019.243;  575.418;23705.837;5443.82490
 494.50; 5940.094;  542.085;23136.754;5398.00873
 495.08; 5951.962;  533.418;22766.338;5418.54439
 495.66; 5868.965;  492.085;22485.011;5376.87984
 496.25; 5818.429;  487.085;22217.761;5331.34417
 496.83; 5616.170;  448.086;21732.662;5168.08479
 497.42; 5585.133;  438.752;21241.545;5146.38115
 498.00; 5438.396;  439.085;20803.653;4999.31037
 498.59; 5349.629;  464.420;20584.392;4885.20945
 499.17; 5282.421;  470.420;20334.455;4812.00078
 499.75; 5313.696;  489.418;20111.216;4824.27762
 500.34; 5248.139;  465.417;19489.841;4782.72137
 500.92; 5060.363;  437.085;18929.549;4623.27762
 501.50; 4898.813;  447.754;18372.306;4451.05888
 502.09; 4814.300;  422.756;18144.513;4391.54379
 502.67; 4842.003;  456.089;17792.964;4385.91410
 503.26; 4876.502;  464.089;17358.100;4412.41385
 503.84; 4819.436;  540.756;16861.276;4278.67902
 504.42; 4660.588;  546.757;16487.093;4113.83114
 505.01; 4580.679;  548.423;16269.657;4032.25588
 505.59; 4525.107;  513.757;16034.626;4011.35097
 506.17; 4539.012;  497.092;15777.432;4041.91933
 506.76; 4436.079;  507.428;15526.697;3928.65095
 507.34; 4362.701;  505.094;15267.223;3857.60658
 507.93; 4297.554;  501.427;15092.427;3796.12745
 508.51; 4249.417;  450.093;14917.660;3799.32451
 509.09; 4204.659;  416.426;14740.038;3788.23365
 509.68; 4158.405;  434.759;14576.953;3723.64516
 510.26; 4172.444;  512.093;14267.411;3660.35092
 510.84; 4099.131;  520.760;13935.475;3578.37099
 511.43; 4034.632;  499.094;13360.005;3535.53791
 512.01; 3931.645;  478.427;13092.049;3453.21831
 512.59; 3931.968;  511.094;12925.682;3420.87441
 513.17; 3852.421;  511.094;12936.061;3341.32712
 513.76; 3794.495;  483.428;12803.626;3311.06668
 514.34; 3665.438;  486.428;12800.115;3179.01069
 514.92; 3692.432;  516.094;12819.428;3176.33769
 515.51; 3670.239;  497.762;12649.871;3172.47714
 516.09; 3751.060;  505.762;12370.694;3245.29804
 516.67; 3729.536;  506.096;12029.477;3223.43961
 517.26; 3765.928;  572.095;11958.275;3193.83266
 517.84; 3738.179;  577.761;11783.683;3160.41798
 518.42; 3651.758;  551.764;11635.846;3099.99374
 519.00; 3531.195;  509.099;11360.895;3022.09566
 519.59; 3567.424;  567.765;11215.900;2999.65880
 520.17; 3540.821;  572.764;11316.380;2968.05713
 520.75; 3503.227;  551.765;11383.275;2951.46230
 521.33; 3314.492;  469.431;11265.394;2845.06135
 521.92; 3292.255;  476.097;10946.642;2816.15804
 522.50; 3260.981;  466.763;10811.830;2794.21720
 523.08; 3236.590;  462.098;10814.036;2774.49188
 523.67; 3234.824;  421.766;10897.444;2813.05868
 524.25; 3204.436;  463.766;10755.270;2740.67042
 524.83; 3214.686;  436.432;10658.008;2778.25468
 525.41; 3252.433;  515.099;10555.260;2737.33391
 525.99; 3219.523;  460.099;10576.212;2759.42371
 526.58; 3121.313;  438.433;10625.268;2682.87959
 527.16; 3038.121;  398.767;10728.047;2639.35343
 527.74; 3057.258;  429.766;10798.093;2627.49133
 528.32; 3142.127;  526.432;10852.347;2615.69471
 528.91; 3139.366;  502.767;10760.769;2636.59908
 529.49; 3188.909;  554.101;10835.100;2634.80826
 530.07; 3234.687;  533.768;10729.119;2700.91919
 530.65; 3262.540;  570.102;10749.040;2692.43740
 531.23; 3208.953;  535.104;10652.346;2673.84835
 531.82; 3218.729;  553.105;10751.358;2665.62384
 532.40; 3211.050;  534.103;10817.934;2676.94716
 532.98; 3212.054;  519.768;10861.890;2692.28527
 533.56; 3166.608;  486.768;10857.867;2679.83995
 534.14; 3144.943;  497.101;10855.541;2647.84207
 534.73; 3088.644;  469.435;10692.315;2619.20920
 535.31; 3148.349;  487.768;10679.436;2660.58057
 535.89; 3161.754;  460.768;10607.997;2700.98574
 536.47; 3253.984;  550.436;10913.392;2703.54832
 537.05; 3207.836;  513.770;11030.310;2694.06548
 537.63; 3176.135;  511.104;11207.202;2665.03167
 538.22; 3152.951;  449.436;11258.285;2703.51452
 538.80; 3231.196;  479.770;11363.060;2751.42522
 539.38; 3355.637;  462.772;11312.123;2892.86471
 539.96; 3485.266;  484.439;11396.669;3000.82667
 540.54; 3470.569;  461.771;11546.855;3008.79870
 541.12; 3441.082;  486.770;11629.701;2954.31218
 541.70; 3457.033;  523.438;11807.267;2933.59531
 542.29; 3491.075;  511.771;11915.732;2979.30318
 542.87; 3457.720;  490.105;12174.664;2967.61538
 543.45; 3418.803;  408.107;12184.980;3010.69618
 544.03; 3526.279;  486.441;12235.100;3039.83880
 544.61; 3781.057;  585.438;12449.008;3195.61855
 545.19; 3896.456;  625.437;12599.829;3271.01900
 545.77; 3784.161;  550.772;12671.337;3233.38875
 546.35; 3686.571;  474.439;12667.249;3212.13254
 546.93; 3732.914;  451.106;12669.945;3281.80871
 547.52; 3976.113;  529.106;12842.906;3447.00627
 548.10; 3959.083;  506.440;13008.812;3452.64335
 548.68; 3929.533;  521.773;13200.515;3407.75956
 549.26; 3826.632;  426.441;13315.494;3400.19115
 549.84; 3885.218;  457.440;13390.572;3427.77752
 550.42; 4005.562;  458.440;13694.606;3547.12142
 551.00; 4113.282;  486.441;13741.777;3626.84197
 551.58; 4213.852;  513.442;13748.192;3700.41089
 552.16; 4202.857;  536.442;13566.205;3666.41511
 552.74; 4177.320;  545.774;13858.561;3631.54561
 553.32; 4205.767;  495.441;14112.920;3710.32532
 553.90; 4315.415;  500.776;14375.584;3814.63908
 554.48; 4326.222;  478.443;14244.027;3847.77853
 555.06; 4369.539;  484.775;14295.922;3884.76429
 555.64; 4447.935;  480.107;14390.733;3967.82823
 556.23; 4617.288;  510.775;14514.181;4106.51231
 556.81; 4634.770;  504.109;14643.317;4130.66021
 557.39; 4583.145;  438.775;14657.064;4144.37074
 557.97; 4666.587;  431.440;14987.686;4235.14678
 558.55; 4741.380;  445.108;15114.752;4296.27249
 559.13; 4866.878;  491.777;15264.993;4375.10130
 559.71; 4802.267;  481.777;15197.504;4320.49062
 560.29; 4898.967;  507.775;15428.554;4391.19165
 560.87; 4916.395;  525.443;15393.853;4390.95234
 561.45; 5053.332;  548.110;15488.709;4505.22174
 562.03; 5154.827;  565.444;15509.553;4589.38231
 562.61; 5208.990;  538.444;15763.682;4670.54662
 563.19; 5162.065;  504.776;15991.530;4657.28884
 563.77; 5156.077;  476.109;16058.570;4679.96819
 564.35; 5213.004;  458.109;16349.339;4754.89529
 564.93; 5333.064;  478.109;16610.193;4854.95445
 565.51; 5440.198;  495.443;16841.286;4944.75529
 566.09; 5590.014;  529.442;16940.369;5060.57147
 566.67; 5665.386;  530.441;16886.439;5134.94550
 567.25; 5645.378;  498.108;16992.746;5147.27038
 567.83; 5669.735;  511.443;17170.207;5158.29201
 568.40; 5695.403;  488.111;17357.934;5207.29252
 568.98; 5921.339;  517.779;17287.787;5403.56085
 569.56; 5971.640;  486.112;17346.016;5485.52810
 570.14; 5995.892;  508.110;17465.037;5487.78170
 570.72; 5907.023;  502.109;17616.066;5404.91431
 571.30; 5885.568;  521.775;17804.346;5363.79282
 571.88; 6015.081;  496.441;18031.193;5518.63963
 572.46; 6121.646;  472.442;18416.261;5649.20433
 573.04; 6332.440;  465.444;18596.385;5866.99616
 573.62; 6440.767;  507.778;18852.031;5932.98982
 574.20; 6479.029;  483.109;19035.749;5995.91959
 574.78; 6451.563;  453.110;19242.717;5998.45259
 575.36; 6464.260;  442.445;19215.535;6021.81495
 575.94; 6472.836;  523.445;19347.249;5949.39182
 576.52; 6456.006;  505.444;19268.733;5950.56246
 577.09; 6525.859;  535.776;19247.266;5990.08228
 577.67; 6565.821;  458.776;19032.479;6107.04425
 578.25; 6650.221;  467.443;19031.023;6182.77748
 578.83; 6629.978;  422.110;19388.642;6207.86727
 579.41; 6803.378;  462.442;19948.799;6340.93544
 579.99; 6910.173;  459.442;20267.152;6450.73154
 580.57; 7081.825;  485.443;20249.492;6596.38181
 581.15; 7333.584;  471.110;20145.451;6862.47372
 581.73; 7464.355;  541.776;20368.059;6922.57886
 582.30; 7473.884;  528.108;20488.959;6945.77591
 582.88; 7350.673;  601.442;20661.012;6749.23074
 583.46; 7384.416;  566.443;20679.254;6817.97347
 584.04; 7585.344;  583.776;20886.025;7001.56830
 584.62; 7735.953;  559.110;21182.565;7176.84297
 585.20; 7831.831;  534.444;21448.566;7297.38654
 585.78; 7880.446;  475.109;21786.681;7405.33638
 586.35; 7762.112;  408.108;21683.290;7354.00360
 586.93; 7686.076;  400.776;21569.567;7285.30046
 587.51; 7691.835;  417.111;21474.579;7274.72410
 588.09; 7821.883;  505.445;21851.397;7316.43831
 588.67; 7899.912;  499.112;22121.821;7400.80016
 589.25; 7918.329;  540.445;22211.086;7377.88362
 589.82; 7973.193;  447.445;22019.990;7525.74840
 590.40; 8028.084;  484.776;22014.590;7543.30786
 590.98; 8067.344;  435.441;22102.305;7631.90324
 591.56; 8192.249;  461.774;22144.336;7730.47483
 592.14; 8135.160;  413.107;22318.391;7722.05381
 592.71; 7945.073;  442.773;22243.449;7502.30051
 593.29; 7813.353;  495.439;22433.944;7317.91330
 593.87; 7802.646;  533.439;22383.817;7269.20649
 594.45; 8173.872;  548.439;22561.144;7625.43312
 595.03; 8309.497;  608.772;22390.347;7700.72525
 595.60; 8421.987;  598.439;22250.177;7823.54827
 596.18; 8276.034;  562.773;22072.991;7713.26142
 596.76; 8106.458;  441.772;22158.556;7664.68617
 597.34; 8119.656;  503.770;22144.409;7615.88694
 597.91; 8119.475;  537.435;22131.169;7582.03962
 598.49; 8172.215;  564.769;22043.067;7607.44585
 599.07; 8090.749;  470.437;22259.701;7620.31218
 599.65; 8163.772;  493.105;22442.162;7670.66715
 600.22; 8402.842;  497.439;22426.717;7905.40354
 600.80; 8670.744;  569.438;22290.742;8101.30635
 601.38; 8681.689;  546.438;22508.234;8135.25141
 601.96; 8406.093;  488.105;22887.789;7917.98781
 602.53; 8221.293;  447.439;23207.756;7773.85414
 603.11; 8286.605;  417.772;23154.023;7868.83301
 603.69; 8534.971;  459.104;23381.736;8075.86631
 604.27; 8850.864;  539.104;23360.400;8311.76067
 604.84; 8813.412;  547.771;23424.745;8265.64074
 605.42; 8773.020;  540.104;22960.894;8232.91597
 606.00; 8527.334;  441.770;22983.443;8085.56417
 606.57; 8606.808;  476.435;23251.835;8130.37295
 607.15; 8773.308;  525.101;23430.975;8248.20709
 607.73; 8907.911;  580.768;23298.773;8327.14371
 608.31; 8861.096;  542.435;22672.691;8318.66086
 608.88; 8823.776;  507.102;22627.734;8316.67459
 609.46; 8929.329;  481.101;22904.372;8448.22716
 610.04; 8904.548;  475.434;23097.346;8429.11412
 610.61; 8844.974;  446.766;23135.918;8398.20764
 611.19; 9060.082;  465.099;22525.206;8594.98368
 611.77; 9455.976;  458.098;22416.204;8997.87803
 612.34; 9571.527;  454.433;22614.892;9117.09460
 612.92; 9321.401;  436.767;23148.880;8884.63395
 613.50; 9138.383;  441.767;23140.489;8696.61599
 614.07; 9110.816;  474.767;22629.138;8636.04862
 614.65; 9156.911;  488.768;22447.107;8668.14371
 615.23; 9137.479;  484.102;22368.849;8653.37718
 615.80; 9168.551;  468.769;22603.744;8699.78235
 616.38; 9111.305;  470.435;22504.298;8640.87059
 616.96; 8961.466;  525.767;22594.084;8435.69839
 617.53; 8911.495;  490.099;22417.791;8421.39625
 618.11; 8862.809;  473.098;22122.340;8389.71111
 618.68; 9068.273;  428.765;22021.420;8639.50772
 619.26; 9275.734;  454.765;21937.159;8820.96889
 619.84; 9471.172;  451.098;21811.101;9020.07403
 620.41; 9450.122;  459.099;21819.664;8991.02277
 620.99; 9007.193;  472.767;21880.609;8534.42527
 621.56; 8752.411;  468.767;21678.913;8283.64451
 622.14; 8621.142;  485.766;21472.394;8135.37617
 622.72; 8921.861;  481.764;21288.838;8440.09621
 623.29; 8854.347;  531.097;21575.934;8323.24995
 623.87; 8828.733;  525.431;21390.435;8303.30277
 624.44; 8824.199;  568.764;21122.188;8255.43483
 625.02; 9030.779;  605.097;20959.246;8425.68153
 625.60; 8947.606;  555.097;20820.699;8392.50933
 626.17; 8790.688;  513.097;21139.957;8277.59068
 626.75; 8646.396;  442.431;20925.088;8203.96521
 627.32; 8639.832;  486.096;20970.693;8153.73597
 627.90; 8764.938;  483.762;20562.642;8281.17655
 628.47; 8901.643;  528.762;20617.096;8372.88125
 629.05; 9115.588;  543.763;20815.642;8571.82471
 629.63; 9146.197;  539.763;20853.461;8606.43433
 630.20; 9177.890;  497.428;20935.821;8680.46129
 630.78; 9144.646;  456.762;20933.773;8687.88442
 631.35; 9012.561;  461.096;20981.558;8551.46496
 631.93; 9087.095;  434.097;21038.192;8652.99796
 632.50; 9247.746;  456.097;20731.142;8791.64879
 633.08; 9148.545;  427.095;20709.784;8721.44967
 633.65; 8886.721;  497.426;20689.233;8389.29492
 634.23; 8473.037;  497.759;20826.513;7975.27802
 634.80; 8643.552;  544.760;20899.753;8098.79201
 635.38; 8967.164;  519.093;21011.245;8448.07041
 635.95; 9315.580;  521.759;21177.453;8793.82108
 636.53; 9360.227;  499.759;21326.059;8860.46873
 637.10; 9093.830;  472.425;21203.858;8621.40535
 637.68; 9083.554;  458.090;21114.652;8625.46400
 638.25; 9236.265;  483.091;20831.123;8753.17399
 638.83; 9525.661;  508.426;20681.378;9017.23576
 639.40; 9604.255;  553.427;20217.867;9050.82793
 639.98; 9508.047;  501.093;19814.876;9006.95420
 640.55; 9633.443;  484.094;19820.462;9149.34848
 641.13; 9722.473;  427.095;19930.557;9295.37820
 641.70;10012.503;  467.095;20314.651;9545.40793
 642.28;10195.199;  450.095;20186.745;9745.10432
 642.85;10226.562;  456.762;20192.507;9769.80071
 643.42;10162.259;  429.095;20107.934;9733.16377
 644.00;10122.622;  485.429;20103.029;9637.19350
 644.57;10062.985;  452.095;19889.123;9610.88989
 645.15;10215.682;  524.095;19675.884;9691.58628
 645.72;10320.712;  479.429;19536.645;9841.28267
 646.30;10615.075;  546.762;19704.407;10068.31240
 646.87;10578.771;  485.763;19868.168;10093.00879
 647.45;10314.468;  481.096;19755.262;9833.37185
 648.02;10171.498;  456.429;19792.023;9715.06824
 648.59;10186.528;  423.430;19896.451;9763.09797
 649.17;10210.224;  491.763;20259.212;9718.46102
 649.74; 9986.254;  498.763;20108.973;9487.49075
 650.32; 9962.284;  576.430;19858.401;9385.85381
 650.89;10066.314;  478.763;19432.162;9587.55020
 651.46;10262.344;  506.097;19357.923;9756.24659
 652.04; 9968.040;  498.097;19346.684;9469.94298
 652.61; 9622.070;  524.097;19424.779;9097.97271
 653.19; 9364.100;  497.764;19206.207;8866.33577
 653.76; 9331.463;  487.097;18975.301;8844.36549
 654.33; 9302.826;  523.431;18849.729;8779.39522
 654.91; 9245.189;  534.764;19002.157;8710.42494
 655.48; 9378.886;  585.098;19054.584;8793.78800
 656.05; 9379.916;  574.098;18952.679;8805.81773
 656.63; 9285.612;  572.098;18685.107;8713.51412
 657.20; 8933.309;  537.432;18342.201;8395.87718
 657.78; 8816.339;  540.432;18056.295;8275.90690
 658.35; 8728.369;  495.432;17984.723;8232.93663
 658.92; 8623.065;  500.099;18239.818;8122.96635
 659.50; 8308.762;  484.432;18449.579;7824.32941
 660.07; 8108.125;  500.432;18478.007;7607.69247
 660.64; 7967.488;  472.432;18543.101;7495.05553
 661.22; 8030.184;  459.766;18577.862;7570.41859
 661.79; 7984.214;  484.099;18935.623;7500.11498
 662.36; 7944.578;  459.099;18925.384;7485.47804
 662.93; 7908.941;  482.433;18779.812;7426.50776
 663.51; 7829.971;  483.766;18440.240;7346.20415
 664.08; 7911.334;  502.100;18198.334;7409.23388
 664.65; 7790.364;  445.767;18189.762;7344.59694
 665.23; 7777.727;  445.433;18199.523;7332.29333
 665.80; 7542.423;  410.434;18248.618;7131.98972
 666.37; 7568.120;  578.434;18305.712;6989.68612
 666.95; 7669.483;  562.767;18426.806;7106.71584
 667.52; 7834.513;  561.767;18366.568;7272.74557
 668.09; 7910.876;  391.434;18367.995;7519.44196
 668.66; 7757.906;  398.101;18291.090;7359.80502
 669.24; 7713.936;  486.101;18254.518;7227.83474
 669.81; 7548.632;  508.435;18101.279;7040.19780
 670.38; 7707.329;  473.768;18336.040;7233.56086
 670.95; 7807.025;  482.102;18568.801;7324.92392
 671.53; 7926.055;  504.102;18802.229;7421.95364
 672.10; 7836.085;  544.768;18735.323;7291.31670
 672.67; 7850.115;  503.769;18569.418;7346.34643
 673.24; 7914.812;  487.102;18485.512;7427.70948
 673.82; 8057.175;  506.102;18222.606;7551.07254
 674.39; 8173.205;  558.436;18286.034;7614.76893
 674.96; 8184.234;  586.769;18406.129;7597.46533
 675.53; 8106.598;  553.436;18597.223;7553.16172
 676.11; 8063.628;  454.436;18417.984;7609.19144
 676.68; 8082.657;  414.436;18183.745;7668.22117
 677.25; 8150.021;  447.436;18157.506;7702.58423
 677.82; 8146.384;  459.770;18247.601;7686.61395
 678.39; 8067.080;  453.770;18388.695;7613.31035
 678.97; 8278.443;  468.103;18689.123;7810.34007
 679.54; 8295.140;  490.770;18953.218;7804.36979
 680.11; 8406.170;  508.104;19152.645;7898.06619
 680.68; 8116.200;  451.104;18911.740;7665.09591
 681.25; 8029.896;  413.437;18747.834;7616.45897
 681.83; 8199.593;  397.771;18886.262;7801.82203
 682.40; 8464.623;  417.771;19189.023;8046.85175
 682.97; 8570.986;  456.438;19660.118;8114.54815
 683.54; 8538.016;  467.438;19830.879;8070.57787
 684.11; 8444.379;  486.438;19577.640;7957.94093
 684.68; 8486.409;  493.771;19372.068;7992.63732
 685.26; 8430.772;  491.772;19346.829;7939.00038
 685.83; 8626.468;  439.772;19533.590;8186.69677
 686.40; 8772.832;  438.772;19710.351;8334.05983
 686.97; 8769.528;  415.439;19431.779;8354.08956
 687.54; 8599.891;  465.772;19353.206;8134.11928
 688.11; 8441.921;  406.106;19013.301;8035.81567
 688.68; 8606.951;  435.439;18846.729;8171.51207
 689.26; 8590.314;  424.439;18835.823;8165.87512
 689.83; 8568.677;  478.773;18987.251;8089.90485
 690.40; 8323.374;  488.106;19135.345;7835.26791
 690.97; 8357.737;  458.106;19350.106;7899.63097
 691.54; 8364.434;  474.773;19493.534;7889.66069
 692.11; 8529.464;  482.440;19647.629;8047.02375
 692.68; 8542.493;  525.773;19346.056;8016.72014
 693.25; 8634.523;  637.773;19377.484;7996.74987
 693.82; 8538.220;  694.107;19729.579;7844.11293
 694.40; 8430.916;  664.440;20020.006;7766.47598
 694.97; 8150.613;  508.107;19889.767;7642.50571
 695.54; 8003.976;  429.107;19681.529;7574.86877
 696.11; 8243.339;  441.774;19411.956;7801.56516
 696.68; 8292.036;  446.774;19176.051;7845.26155
 697.25; 8352.399;  440.774;19010.812;7911.62461
 697.82; 8098.429;  445.108;18994.906;7653.32100
 698.39; 7969.792;  437.441;18936.334;7532.35073
 698.96; 7895.489;  457.108;18668.095;7438.38045
 699.53; 7872.518;  437.108;18758.856;7435.41018
 700.10; 7857.215;  446.108;19010.951;7411.10657
 700.67; 7623.578;  417.442;19359.712;7206.13630
 701.24; 7330.608;  400.775;19507.806;6929.83269
 701.81; 7306.305;  406.775;19727.567;6899.52908
 702.38; 7516.668;  405.442;19533.662;7111.22547
 702.95; 7781.031;  426.776;19472.423;7354.25520
 703.52; 7740.727;  433.776;19124.851;7306.95159
 704.09; 7575.091;  452.109;19070.279;7122.98131
 704.66; 7486.120;  481.776;19075.040;7004.34437
 705.23; 7565.484;  435.110;19108.801;7130.37410
 705.80; 7542.847;  437.110;19156.895;7105.73716
 706.37; 7235.543;  406.443;18952.323;6829.10021
 706.94; 6943.240;  438.777;18875.751;6504.46327
 707.51; 6920.270;  476.443;19168.179;6443.82633
 708.08; 6981.966;  496.444;19686.606;6485.52272
 708.65; 6956.663;  468.110;19888.701;6488.55245
 709.22; 7021.693;  459.444;19962.462;6562.24884
 709.79; 6994.723;  455.777;19650.890;6538.94523
 710.36; 7077.419;  460.111;19635.984;6617.30829
 710.93; 6918.782;  420.111;19673.412;6498.67135
 711.50; 6791.479;  400.444;19799.173;6391.03441
 712.07; 6595.175;  410.111;19839.267;6185.06413
 712.64; 6373.872;  420.778;19679.362;5953.09386
 713.21; 6344.568;  409.778;19557.123;5934.79025
 713.78; 6167.265;  407.778;19553.217;5759.48664
 714.35; 6081.628;  415.445;19490.312;5666.18303
 714.92; 5986.325;  402.779;19229.073;5583.54609
 715.49; 6176.355;  379.445;19065.167;5796.90915
 716.06; 6291.718;  373.112;19111.928;5918.60554
 716.63; 6325.748;  404.112;19300.690;5921.63527
 717.20; 6150.444;  424.446;19598.784;5725.99833
 717.77; 5992.807;  442.113;19535.545;5550.69472
 718.34; 5755.170;  430.446;19696.973;5324.72444
 718.90; 5567.534;  439.446;19450.401;5128.08750
 719.47; 5463.230;  411.780;19521.495;5051.45056
 720.04; 5497.593;  422.113;19545.923;5075.48029
 720.61; 5563.290;  412.780;19469.017;5150.51001
 721.18; 5597.653;  399.447;18985.112;5198.20640
 721.75; 5570.350;  357.114;18679.206;5213.23613
 722.32; 5605.046;  356.780;19185.967;5248.26585
 722.89; 5547.743;  370.114;19521.728;5177.62891
 723.46; 5482.106;  417.447;19711.490;5064.65864
 724.02; 5229.802;  443.447;19196.251;4786.35503
 724.59; 4942.832;  469.448;19080.012;4473.38475
 725.16; 4792.195;  453.448;18968.106;4338.74781
 725.73; 4759.559;  416.114;19131.534;4343.44421
 726.30; 4842.589;  385.115;19322.295;4457.47393
 726.87; 4874.285;  372.115;19182.056;4502.17032
 727.44; 4908.315;  385.782;19009.151;4522.53338
 728.00; 4935.678;  391.115;19295.912;4544.56311
 728.57; 4892.708;  393.782;19916.340;4498.92616
 729.14; 4847.404;  396.115;20173.101;4451.28922
 729.71; 4754.101;  414.449;19704.528;4339.65228
 730.28; 4656.464;  380.449;19187.956;4276.01534
 730.85; 4533.494;  377.116;18948.717;4156.37840
 731.41; 4595.191;  451.782;19020.145;4143.40812
 731.98; 4589.220;  477.783;19332.573;4111.43785
 732.55; 4675.250;  479.116;19615.667;4196.13424
 733.12; 4554.613;  413.450;19769.428;4141.16397
 733.69; 4593.977;  414.450;19595.190;4179.52703
 734.25; 4531.007;  407.783;19395.617;4123.22342
 734.82; 4508.036;  384.783;19136.712;4123.25314
 735.39; 4417.066;  396.783;18977.806;4020.28287
 735.96; 4475.429;  380.450;19132.901;4094.97926
 736.52; 4449.126;  402.784;19429.662;4046.34232
 737.09; 4472.823;  431.450;19831.756;4041.37204
 737.66; 4409.852;  457.451;19960.184;3952.40177
 738.23; 4322.216;  424.784;19818.945;3897.43149
 738.80; 4215.579;  381.784;19436.039;3833.79455
 739.36; 4068.609;  380.784;19141.134;3687.82428
 739.93; 4135.305;  393.784;19257.562;3741.52067
 740.50; 4159.002;  416.118;19728.323;3742.88373
 741.07; 4235.698;  421.118;19940.417;3814.58012
 741.63; 4232.395;  437.118;19730.845;3795.27651
 742.20; 4105.091;  428.785;19388.939;3676.30624
 742.77; 4137.788;  434.785;19159.367;3703.00263
 743.33; 4110.818;  421.119;19072.795;3689.69902
 743.90; 4284.514;  430.785;19080.889;3853.72875
 744.47; 4197.544;  428.119;19424.651;3769.42514
 745.04; 4195.907;  438.119;19795.078;3757.78820
 745.60; 4204.270;  474.452;19978.839;3729.81792
 746.17; 4268.300;  582.119;19943.601;3686.18098
 746.74; 4158.663;  558.119;19901.695;3600.54404
 747.30; 4074.360;  530.786;19865.789;3543.57376
 747.87; 3954.057;  446.453;19631.217;3507.60349
 748.44; 4030.753;  481.453;19445.312;3549.29988
 749.00; 4049.450;  494.120;19517.739;3555.32961
 749.57; 4148.813;  458.787;19885.501;3690.02600
 750.14; 4224.176;  433.787;20238.262;3790.38906
 750.70; 4219.539;  398.120;19956.356;3821.41878
 751.27; 4258.569;  433.121;19933.451;3825.44851
 751.84; 4244.599;  407.454;20178.878;3837.14490
 752.40; 4243.629;  421.121;20932.639;3822.50796
 752.97; 4189.325;  416.454;20872.401;3772.87102
 753.54; 4151.688;  453.788;20558.162;3697.90074
 754.10; 4179.052;  422.121;19842.256;3756.93047
 754.67; 4320.748;  466.788;19831.017;3853.96019
 755.24; 4332.778;  436.455;19706.112;3896.32325
 755.80; 4341.141;  446.122;19708.539;3895.01964
 756.37; 4300.838;  368.788;19663.967;3932.04937
 756.94; 4492.534;  417.455;19630.062;4075.07909
 757.50; 4562.564;  417.789;19829.823;4144.77548
 758.07; 4552.594;  406.455;20074.917;4146.13854
 758.63; 4402.957;  351.456;20422.678;4051.50160
 759.20; 4426.320;  396.122;20461.106;4030.19799
 759.77; 4489.017;  412.456;20138.867;4076.56105
 760.33; 4552.713;  429.123;19919.628;4123.59078
 760.90; 4529.743;  369.456;19874.389;4160.28717
 761.46; 4528.773;  392.123;19935.484;4136.65023
 762.03; 4560.470;  385.790;19786.578;4174.67995
 762.60; 4853.833;  471.790;19728.006;4382.04301
 763.16; 4985.196;  466.790;19703.767;4518.40607
 763.73; 5118.893;  467.790;19719.195;4651.10246
 764.29; 4948.256;  386.457;19793.289;4561.79885
 764.86; 4865.952;  393.790;19834.384;4472.16191
 765.42; 4830.649;  402.124;20085.812;4428.52497
 765.99; 4946.345;  405.124;20317.573;4541.22136
 766.55; 5107.375;  399.124;20594.667;4708.25109
 767.12; 5200.072;  396.458;20647.095;4803.61415
 767.68; 5158.435;  409.458;20525.189;4748.97721
 768.25; 5100.798;  384.791;20597.617;4716.00693
 768.82; 5210.161;  356.125;20448.378;4854.03666
 769.38; 5288.525;  389.125;20364.806;4899.39972
 769.95; 5344.888;  397.792;19736.234;4947.09611
 770.51; 5251.251;  423.792;19361.995;4827.45917
 771.08; 5294.614;  405.459;19056.423;4889.15556
 771.64; 5239.977;  391.792;19106.517;4848.18528
 772.21; 5334.007;  440.125;19514.612;4893.88167
 772.77; 5378.704;  449.126;19591.039;4929.57807
 773.34; 5550.400;  478.126;19456.134;5072.27446
 773.90; 5464.763;  442.459;19418.895;5022.30418
 774.47; 5304.127;  469.459;19758.656;4834.66724
 775.03; 5150.490;  476.459;19952.084;4674.03030
 775.60; 5162.186;  466.126;19764.845;4696.06003
 776.16; 5294.216;  431.460;19403.939;4862.75642
 776.73; 5527.579;  429.460;19422.034;5098.11948
 777.29; 5713.943;  443.127;19160.128;5270.81587
 777.85; 5774.306;  420.460;18797.556;5353.84559
 778.42; 5654.002;  429.460;18428.650;5224.54199
 778.98; 5423.365;  392.127;18510.745;5031.23838
 779.55; 5332.729;  391.127;18505.839;4941.60144
 780.11; 5416.092;  355.127;18481.600;5060.96449
 780.68; 5635.455;  383.128;18281.695;5252.32755
 781.24; 5846.818;  386.461;18356.789;5460.35728
 781.81; 5944.848;  389.794;18143.884;5555.05367
 782.37; 6007.545;  411.128;18073.645;5596.41673
 782.93; 5783.908;  417.795;17894.073;5366.11312
 783.50; 5802.271;  419.128;17874.167;5383.14285
 784.06; 5838.634;  384.128;17823.595;5454.50590
 784.63; 6025.664;  385.128;17756.689;5640.53563
 785.19; 5943.027;  394.462;17820.784;5548.56535
 785.75; 5756.057;  408.462;17793.878;5347.59508
 786.32; 5697.754;  431.796;17865.973;5265.95814
 786.88; 5601.784;  446.462;17952.734;5155.32120
 787.45; 5582.480;  427.796;18196.495;5154.68426
 788.01; 5556.510;  376.463;18230.589;5180.04731
 788.57; 5719.873;  330.796;17817.350;5389.07704
 789.14; 5771.570;  333.130;17188.778;5438.44010
 789.70; 5912.266;  339.130;16872.873;5573.13649
 790.26; 5930.629;  375.130;16866.634;5555.49955
 790.83; 5882.326;  372.797;16841.061;5509.52927
 791.39; 5693.356;  367.797;16607.823;5325.55900
 791.95; 5644.386;  368.797;16800.250;5275.58872
 792.52; 5701.415;  386.464;16949.678;5314.95178
 793.08; 5728.779;  407.797;16987.773;5320.98151
 793.64; 5689.475;  391.464;16407.200;5298.01123
 794.21; 5649.505;  366.797;15884.628;5282.70762
 794.77; 5620.868;  389.464;15803.056;5231.40402
 795.33; 5552.565;  398.131;15997.150;5154.43374
 795.90; 5561.595;  420.131;16264.911;5141.46347
 796.46; 5633.291;  409.131;16534.673;5224.15986
 797.02; 5729.988;  420.798;16473.434;5309.18958
 797.59; 5779.018;  408.798;16296.195;5370.21931
 798.15; 5928.381;  471.132;16011.956;5457.24904
 798.71; 6014.411;  466.798;16118.384;5547.61209
 799.28; 5962.440;  474.799;16106.478;5487.64182
 799.84; 5719.470;  410.132;16165.906;5309.33821
 800.40; 5423.833;  382.132;15984.000;5041.70127
 800.96; 5535.197;  381.132;15802.761;5154.06433
 801.53; 5768.227;  353.466;15447.189;5414.76072
 802.09; 5900.256;  352.133;15270.617;5548.12378
 802.65; 5839.286;  355.799;15378.378;5483.48684
 803.21; 5671.983;  391.800;15356.139;5280.18323
 803.78; 5557.679;  405.466;15254.900;5152.21295
 804.34; 5481.709;  435.800;14932.995;5045.90935
 804.90; 5381.072;  421.800;14616.089;4959.27240
 805.46; 5324.769;  439.467;14292.850;4885.30213
 806.03; 5289.799;  425.467;14103.945;4864.33186
 806.59; 5274.829;  427.800;14352.039;4847.02825
 807.15; 5372.192;  423.801;14357.800;4948.39131
 807.71; 5348.555;  412.134;14408.561;4936.42103
 808.28; 5498.918;  418.801;14111.656;5080.11742
 808.84; 5577.948;  409.134;14267.750;5168.81381
 809.40; 5741.645;  424.134;14139.178;5317.51021
 809.96; 5690.341;  426.135;14121.606;5264.20660
 810.52; 5689.371;  422.801;14008.367;5266.56966
 811.09; 5462.734;  394.135;14023.461;5068.59938
 811.65; 5281.097;  424.802;13716.889;4856.29577
 812.21; 5038.794;  427.802;13465.984;4610.99217
 812.77; 5011.157;  418.135;13073.078;4593.02189
 813.33; 5087.854;  366.469;13023.839;4721.38495
 813.90; 5148.550;  378.135;12848.267;4770.41467
 814.46; 5148.913;  416.802;12921.695;4732.11107
 815.02; 5015.277;  398.136;12893.456;4617.14079
 815.58; 5074.973;  409.803;12684.884;4665.17052
 816.14; 5239.336;  410.136;12506.978;4829.20024
 816.70; 5411.033;  469.469;12326.739;4941.56330
 817.26; 5283.063;  434.136;12390.167;4848.92636
 817.83; 5095.092;  381.470;12341.595;4713.62275
 818.39; 4894.122;  362.470;12182.022;4531.65248
 818.95; 4748.486;  391.470;11927.784;4357.01554
 819.51; 4733.515;  431.803;11720.878;4301.71193
 820.07; 4720.212;  442.804;11391.972;4277.40832
 820.63; 4758.242;  417.137;11184.400;4341.10471
 821.19; 4622.605;  420.804;11124.161;4201.80110
 821.75; 4513.302;  378.804;11198.256;4134.49750
 822.32; 4535.665;  412.804;11313.017;4122.86055
 822.88; 4677.695;  408.471;11194.445;4269.22361
 823.44; 4754.724;  408.804;11038.206;4345.92000
 824.00; 4898.421;  432.138;10869.967;4466.28306
 824.56; 4749.784;  439.138;10713.061;4310.64612
 825.12; 4634.147;  492.138;10643.156;4142.00918
 825.68; 4461.177;  457.805;10697.917;4003.37224
 826.24; 4468.207;  429.805;10692.678;4038.40196
 826.80; 4492.904;  408.139;10510.439;4084.76502
 827.36; 4430.600;  422.472;10200.867;4008.12808
 827.92; 4444.963;  432.472;10046.628;4012.49114
 828.48; 4538.993;  404.806;10187.389;4134.18753
 829.04; 4627.690;  409.472;10173.484;4218.21726
 829.60; 4632.720;  405.806;10036.245;4226.91365
 830.17; 4635.083;  439.473; 9928.339;4195.61004
 830.73; 4581.779;  384.473; 9759.100;4197.30643
 831.29; 4476.142;  391.473; 9740.861;4084.66949
 831.85; 4261.839;  361.140; 9577.289;3900.69922
 832.41; 4134.869;  402.473; 9702.050;3732.39561
 832.97; 4085.232;  389.807; 9570.811;3695.42533
 833.53; 4127.929;  391.140; 9398.239;3736.78839
 834.09; 4118.625;  367.474; 9032.667;3751.15145
 834.65; 4168.988;  414.474; 9064.428;3754.51451
 835.21; 4148.018;  408.474; 8901.522;3739.54423
 835.77; 4259.048;  396.807; 8705.950;3862.24063
 836.33; 4291.745;  355.474; 8427.711;3936.27035
 836.89; 4339.774;  356.808; 8516.139;3982.96674
 837.45; 4431.804;  402.141; 8673.233;4029.66313
 838.01; 4350.501;  403.141; 8743.661;3947.35953
 838.57; 4181.531;  386.808; 8606.089;3794.72259
 839.13; 3939.227;  363.475; 8522.517;3575.75231
 839.69; 3926.590;  388.808; 8394.278;3537.78204
 840.24; 3937.287;  442.808; 8367.372;3494.47843
 840.80; 3843.983;  434.809; 8268.467;3409.17482
 841.36; 3773.680;  445.809; 8234.895;3327.87121
 841.92; 3802.376;  406.142; 8131.322;3396.23427
 842.48; 3916.740;  397.476; 8110.750;3519.26400
 843.04; 4038.770;  361.809; 8151.511;3676.96039
 843.60; 4127.466;  379.809; 8241.272;3747.65678
 844.16; 4090.163;  381.809; 8288.367;3708.35317
 844.72; 3937.192;  384.810; 8091.795;3552.38290
 845.28; 3857.889;  423.810; 7937.556;3434.07929
 845.84; 3897.585;  455.476; 7763.317;3442.10901
 846.40; 4006.615;  435.143; 7617.745;3571.47207
 846.96; 4037.979;  400.810; 7422.839;3637.16846
 847.52; 4027.008;  401.477; 7270.600;3625.53152
 848.07; 3938.038;  454.144; 7277.361;3483.89458
 848.63; 3864.401;  455.810; 7290.789;3408.59097
 849.19; 3674.098;  417.811; 7160.217;3256.28736
 849.75; 3697.794;  413.477; 7197.645;3284.31709
 850.31; 3726.491;  398.478; 7143.072;3328.01348
 850.87; 3966.854;  480.144; 7223.167;3486.70987
 851.43; 3851.884;  430.144; 7040.595;3421.73960
 851.99; 3853.914;  438.478; 6988.022;3415.43599
 852.54; 3740.277;  388.145; 6899.450;3352.13238
 853.10; 3867.307;  423.478; 6883.545;3443.82877
 853.66; 3929.004;  416.478; 6768.306;3512.52517
 854.22; 3937.700;  394.812; 6611.067;3542.88823
 854.78; 3886.730;  372.812; 6440.828;3513.91795
 855.34; 3785.093;  357.479; 6383.922;3427.61434
 855.89; 3750.456;  360.479; 6376.683;3389.97740
 856.45; 3730.819;  384.479; 6389.778;3346.34046
 857.01; 3839.849;  475.812; 6455.206;3364.03685
 857.57; 3858.546;  457.479; 6389.300;3401.06658
 858.13; 3840.242;  449.146; 6348.728;3391.09630
 858.69; 3768.272;  395.813; 6153.156;3372.45936
 859.24; 3732.302;  373.813; 5975.917;3358.48909
 859.80; 3615.665;  348.813; 5794.678;3266.85214
 860.36; 3413.029;  327.147; 5841.772;3085.88187
 860.92; 3296.725;  370.480; 5916.867;2926.24493
 861.47; 3328.755;  366.480; 6051.961;2962.27465
 862.03; 3239.451;  364.814; 6000.056;2874.63771
 862.59; 3067.815;  370.147; 5926.817;2697.66744
 863.15; 2816.511;  381.814; 5818.911;2434.69716
 863.71; 2706.541;  360.814; 5748.339;2345.72689
 864.26; 2719.904;  354.148; 5735.767;2365.75661
 864.82; 2710.601;  344.148; 5664.528;2366.45300
 865.38; 2710.631;  358.815; 5507.289;2351.81606
 865.94; 2674.327;  346.815; 5458.050;2327.51245
 866.49; 2584.024;  345.481; 5496.144;2238.54218
 867.05; 2490.720;  368.148; 5579.906;2122.57191
 867.61; 2337.417;  354.482; 5572.333;1982.93496
 868.16; 2311.447;  359.815; 5457.094;1951.63136
 868.72; 2306.143;  344.482; 5441.189;1961.66108
 869.28; 2333.506;  365.815; 5450.950;1967.69081
 869.84; 2248.203;  361.149; 5436.378;1887.05386
 870.39; 2196.899;  371.482; 5338.806;1825.41692
 870.95; 2077.263;  365.483; 5185.900;1711.77998
 871.51; 2041.292;  361.816; 5101.328;1679.47637
 872.06; 1938.989;  331.149; 5056.756;1607.83943
 872.62; 1879.019;  334.150; 5133.517;1544.86916
 873.18; 1812.049;  339.483; 5106.611;1472.56555
 873.73; 1831.412;  385.150; 5037.039;1446.26194
 874.29; 1807.442;  373.817; 4886.800;1433.62500
 874.85; 1786.108;  405.150; 4885.800;1380.95833
 875.40; 1677.442;  390.150; 4832.800;1287.29167
 875.96; 1668.775;  439.483; 4874.133;1229.29167
 876.52; 1637.108;  448.817; 4834.800;1188.29167
 877.07; 1635.108;  460.483; 4794.133;1174.62500
 877.63; 1554.442;  428.817; 4826.133;1125.62500
 878.19; 1502.108;  382.150; 4852.133;1119.95833
 878.74; 1465.775;  373.483; 4896.133;1092.29167
 879.30; 1463.108;  362.817; 4706.467;1100.29167
 879.86; 1426.108;  383.150; 4488.133;1042.95833
 880.41; 1409.775;  376.483; 4382.800;1033.29167
 880.97; 1377.775;  355.817; 4453.800;1021.95833
 881.52; 1418.442;  343.483; 4535.800;1074.95833
 882.08; 1436.442;  336.150; 4507.133;1100.29167
 882.64; 1442.442;  365.817; 4430.133;1076.62500
 883.19; 1401.442;  365.150; 4388.133;1036.29167
 883.75; 1345.442;  365.483; 4498.133;979.95833
 884.30; 1328.442;  353.817; 4567.800;974.62500
 884.86; 1335.442;  372.150; 4605.467;963.29167
 885.42; 1340.442;  373.817; 4619.133;966.62500
 885.97; 1370.775;  396.150; 4586.133;974.62500
 886.53; 1388.108;  391.150; 4566.467;996.95833
 887.08; 1419.108;  397.150; 4426.467;1021.95833
 887.64; 1412.442;  419.817; 4423.800;992.62500
 888.19; 1390.442;  419.150; 4429.467;971.29167
 888.75; 1363.442;  406.483; 4330.467;956.95833
 889.31; 1336.775;  364.483; 4128.800;972.29167
 889.86; 1316.775;  345.483; 3924.800;971.29167
 890.42; 1322.108;  342.817; 3994.133;979.29167
 890.97; 1359.775;  351.150; 4049.467;1008.62500
 891.53; 1405.775;  376.817; 4081.133;1028.95833
 892.08; 1419.108;  394.483; 3942.133;1024.62500
 892.64; 1393.108;  408.483; 3900.800;984.62500
 893.19; 1385.108;  394.483; 3900.800;990.62500
 893.75; 1388.775;  385.150; 3902.467;1003.62500
 894.30; 1363.775;  369.817; 3925.800;993.95833
 894.86; 1332.442;  377.483; 3927.800;954.95833
 895.41; 1312.108;  403.150; 3918.467;908.95833
 895.97; 1362.108;  384.150; 3725.133;977.95833
 896.52; 1404.442;  383.483; 3531.133;1020.95833
 897.08; 1427.775;  349.150; 3439.467;1078.62500
 897.63; 1387.442;  345.817; 3463.133;1041.62500
 898.19; 1342.108;  336.483; 3459.800;1005.62500
 898.74; 1267.775;  332.483; 3400.467;935.29167
 899.30; 1251.775;  324.150; 3312.133;927.62500
 899.85; 1232.775;  313.817; 3291.800;918.95833
 900.41; 1342.775;  365.483; 3336.467;977.29167
 900.96; 1398.775;  388.150; 3342.133;1010.62500
 901.51; 1440.108;  408.817; 3274.467;1031.29167
 902.07; 1476.775;  471.817; 3220.133;1004.95833
 902.62; 1461.108;  467.150; 3151.800;993.95833
 903.18; 1458.775;  459.483; 3190.800;999.29167
 903.73; 1360.775;  380.817; 3191.800;979.95833
 904.29; 1388.775;  378.483; 3183.467;1010.29167
 904.84; 1417.108;  390.150; 3188.133;1026.95833
 905.39; 1399.108;  351.150; 3127.133;1047.95833
 905.95; 1348.775;  369.483; 3149.800;979.29167
 906.50; 1406.442;  465.483; 3190.467;940.95833
 907.06; 1424.442;  469.817; 3140.467;954.62500
 907.61; 1442.442;  484.150; 3134.133;958.29167
 908.16; 1388.775;  387.150; 3016.133;1001.62500
 908.72; 1407.775;  398.817; 2946.800;1008.95833
 909.27; 1382.108;  376.817; 2909.800;1005.29167
 909.82; 1347.775;  413.817; 2904.133;933.95833
 910.38; 1329.442;  411.817; 2873.467;917.62500
 910.93; 1360.442;  424.817; 2756.467;935.62500
 911.49; 1375.442;  380.483; 2655.800;994.95833
 912.04; 1357.108;  370.817; 2643.467;986.29167
 912.59; 1323.442;  368.483; 2663.467;954.95833
 913.15; 1271.442;  384.150; 2658.133;887.29167
 913.70; 1264.442;  375.817; 2624.800;888.62500
 914.25; 1260.442;  362.483; 2602.467;897.95833
 914.81; 1312.108;  359.150; 2594.467;952.95833
 915.36; 1328.442;  396.150; 2637.800;932.29167
 915.91; 1364.442;  398.483; 2619.133;965.95833
 916.47; 1370.108;  383.483; 2610.467;986.62500
 917.02; 1401.442;  378.150; 2518.133;1023.29167
 917.57; 1366.775;  365.150; 2434.133;1001.62500
 918.12; 1313.775;  370.483; 2411.800;943.29167
 918.68; 1293.108;  387.483; 2439.800;905.62500
 919.23; 1295.775;  399.483; 2472.800;896.29167
 919.78; 1318.775;  396.150; 2425.800;922.62500
 920.34; 1381.442;  428.483; 2483.133;952.95833
 920.89; 1391.775;  427.150; 2454.467;964.62500
 921.44; 1439.442;  446.817; 2432.467;992.62500
 921.99; 1360.775;  373.483; 2302.133;987.29167
 922.55; 1345.442;  383.150; 2267.467;962.29167
 923.10; 1284.108;  360.150; 2253.467;923.95833
 923.65; 1287.442;  395.483; 2254.467;891.95833
 924.20; 1276.108;  405.150; 2218.133;870.95833
 924.76; 1309.442;  419.817; 2167.800;889.62500
 925.31; 1233.775;  385.817; 2136.467;847.95833
 925.86; 1213.775;  375.817; 2122.133;837.95833
 926.41; 1142.775;  355.483; 2106.467;787.29167
 926.97; 1167.775;  379.817; 2110.467;787.95833
 927.52; 1162.442;  381.817; 2109.800;780.62500
 928.07; 1214.442;  447.483; 2184.133;766.95833
 928.62; 1235.775;  462.483; 2154.133;773.29167
 929.17; 1272.108;  465.483; 2139.133;806.62500
 929.73; 1248.108;  404.150; 2013.800;843.95833
 930.28; 1282.108;  405.817; 2026.133;876.29167
 930.83; 1294.108;  404.817; 2040.467;889.29167
 931.38; 1291.442;  405.817; 2064.800;885.62500
 931.93; 1226.775;  358.483; 1992.800;868.29167
 932.48; 1154.108;  357.150; 1944.800;796.95833
 933.04; 1111.108;  357.150; 1915.800;753.95833
 933.59; 1079.108;  364.817; 1890.133;714.29167
 934.14; 1093.775;  356.483; 1841.133;737.29167
 934.69; 1114.775;  385.483; 1837.800;729.29167
 935.24; 1111.108;  387.483; 1827.133;723.62500
 935.79; 1109.108;  390.817; 1809.800;718.29167
 936.34; 1107.775;  384.817; 1772.133;722.95833
 936.90; 1142.442;  402.483; 1768.467;739.95833
 937.45; 1120.108;  391.817; 1772.800;728.29167
 938.00; 1075.442;  357.483; 1780.800;717.95833
 938.55; 1058.442;  357.817; 1813.467;700.62500
 939.10; 1079.775;  363.483; 1856.800;716.29167
 939.65; 1111.775;  388.817; 1836.467;722.95833
 940.20; 1104.775;  375.483; 1784.467;729.29167
 940.75; 1129.108;  454.817; 1763.800;674.29167
 941.31; 1102.108;  439.150; 1769.467;662.95833
 941.86; 1118.108;  458.817; 1822.467;659.29167
 942.41; 1093.442;  408.817; 1794.133;684.62500
 942.96; 1067.108;  412.150; 1744.133;654.95833
 943.51; 1027.108;  388.483; 1647.133;638.62500
 944.06;  999.108;  378.817; 1608.133;620.29167
 944.61; 1074.442;  434.483; 1654.467;639.95833
 945.16; 1070.108;  415.483; 1692.467;654.62500
 945.71; 1060.108;  402.483; 1715.467;657.62500
 946.26; 1032.775;  369.483; 1623.800;663.29167
 946.81; 1046.775;  434.483; 1616.800;612.29167
 947.36; 1010.442;  411.483; 1559.133;598.95833
 947.91;  935.108;  390.483; 1574.800;544.62500
 948.46;  890.775;  336.817; 1492.467;553.95833
 949.01;  908.442;  359.817; 1484.800;548.62500
 949.56;  914.775;  347.150; 1465.800;567.62500
 950.11;  916.775;  350.150; 1486.133;566.62500
 950.66;  901.108;  337.483; 1434.467;563.62500
 951.21;  872.775;  351.150; 1399.467;521.62500
 951.76;  917.442;  415.483; 1425.133;501.95833
 952.31;  934.775;  399.150; 1413.800;535.62500
 952.86;  993.108;  423.483; 1493.800;569.62500
 953.41;  915.442;  362.483; 1417.800;552.95833
 953.96;  877.775;  374.817; 1424.800;502.95833
 954.51;  846.775;  352.150; 1338.467;494.62500
 955.06;  857.442;  343.150; 1325.467;514.29167
 955.61;  861.442;  339.150; 1345.467;522.29167
 956.16;  846.108;  326.817; 1386.133;519.29167
 956.71;  849.775;  366.483; 1384.467;483.29167
 957.26;  845.442;  386.483; 1372.800;458.95833
 957.81;  830.108;  383.817; 1276.800;446.29167
 958.36;  816.775;  382.483; 1247.467;434.29167
 958.91;  812.442;  379.150; 1200.467;433.29167
 959.46;  831.442;  403.150; 1211.133;428.29167
 960.01;  822.108;  365.150; 1203.133;456.95833
 960.56;  815.108;  351.150; 1203.133;463.95833
 961.11;  816.442;  368.483; 1211.133;447.95833
 961.65;  827.442;  368.150; 1207.800;459.29167
 962.20;  809.108;  377.483; 1189.800;431.62500
 962.75;  757.775;  343.150; 1155.800;414.62500
 963.30;  746.442;  360.150; 1136.467;386.29167
 963.85;  750.442;  359.483; 1151.800;390.95833
 964.40;  767.442;  359.150; 1147.467;408.29167
 964.95;  801.442;  379.817; 1149.800;421.62500
 965.50;  823.108;  372.483; 1129.467;450.62500
 966.05;  828.775;  379.150; 1114.467;449.62500
 966.59;  788.108;  352.817; 1098.800;435.29167
 967.14;  749.775;  354.817; 1070.467;394.95833
 967.69;  710.775;  337.150; 1058.133;373.62500
 968.24;  696.442;  338.150; 1053.133;358.29167
 968.79;  700.775;  362.150; 1081.133;338.62500
 969.34;  703.108;  370.150; 1076.800;332.95833
 969.89;  705.775;  379.817; 1066.800;325.95833
 970.43;  744.108;  413.483; 1065.800;330.62500
 970.98;  746.108;  407.483; 1045.800;338.62500
 971.53;  747.108;  408.817; 1011.133;338.29167
 972.08;  720.442;  397.483; 1005.800;322.95833
 972.63;  729.108;  428.150; 1018.133;300.95833
 973.17;  708.775;  410.817; 1026.133;297.95833
 973.72;  695.775;  374.483;  993.467;321.29167
 974.27;  677.108;  357.817;  956.800;319.29167
 974.82;  701.775;  389.483;  969.467;312.29167
 975.37;  716.775;  390.150;  937.467;326.62500
 975.91;  733.108;  377.483;  953.467;355.62500
 976.46;  720.775;  342.817;  925.133;377.95833
 977.01;  695.442;  341.150;  946.133;354.29167
 977.56;  697.108;  350.483;  921.800;346.62500
 978.10;  691.775;  368.150;  913.133;323.62500
 978.65;  735.775;  379.150;  899.800;356.62500
 979.20;  780.442;  407.150;  897.800;373.29167
 979.75;  808.442;  415.483;  911.800;392.95833
 980.29;  779.442;  420.817;  924.467;358.62500
 980.84;  748.108;  418.817;  956.800;329.29167
 981.39;  723.442;  402.483;  957.467;320.95833
 981.94;  730.442;  401.150;  949.133;329.29167
 982.48;  734.442;  366.150;  906.133;368.29167
 983.03;  746.108;  368.150;  879.800;377.95833
 983.58;  721.775;  349.817;  848.467;371.95833
 984.12;  705.442;  372.150;  860.800;333.29167
 984.67;  689.442;  372.817;  867.133;316.62500
 985.22;  703.442;  399.483;  907.133;303.95833
 985.77;  690.442;  387.817;  917.133;302.62500
 986.31;  711.108;  399.150;  931.467;311.95833
 986.86;  700.775;  381.483;  932.133;319.29167
 987.41;  712.108;  390.483;  930.133;321.62500
 987.95;  682.442;  381.150;  930.800;301.29167
 988.50;  694.775;  396.150;  932.467;298.62500
 989.05;  695.108;  406.483;  938.800;288.62500
 989.59;  703.775;  428.483;  925.133;275.29167
 990.14;  680.108;  401.483;  895.467;278.62500
 990.69;  672.108;  409.483;  886.467;262.62500
 991.23;  676.442;  409.483;  904.800;266.95833
 991.78;  711.108;  442.150;  924.800;268.95833
 992.32;  720.775;  431.150;  909.467;289.62500
 992.87;  710.108;  422.483;  873.800;287.62500
 993.42;  666.775;  397.150;  831.133;269.62500
 993.96;  660.775;  395.817;  848.133;264.95833
 994.51;  666.775;  385.483;  892.133;281.29167
 995.05;  674.442;  397.817;  931.133;276.62500
 995.60;  665.108;  397.483;  924.800;267.62500
 996.15;  645.442;  388.817;  903.467;256.62500
 996.69;  650.442;  382.150;  878.133;268.29167
 997.24;  652.775;  406.483;  893.467;246.29167
 997.78;  708.775;  442.483;  913.133;266.29167
 998.33;  716.108;  438.483;  911.133;277.62500
 998.88;  724.442;  382.150;  882.467;342.29167
 999.42;  698.108;  350.150;  870.467;347.95833
 999.97;  722.442;  369.483;  876.133;352.95833
1000.51;  729.775;  410.817;  890.467;318.95833
1001.06;  718.108;  408.817;  862.800;309.29167
1001.60;  707.108;  402.817;  860.467;304.29167
1002.15;  726.442;  413.483;  879.133;312.95833
1002.69;  705.442;  407.150;  867.133;298.29167
1003.24;  711.108;  433.150;  903.800;277.95833
1003.78;  659.442;  398.150;  894.133;261.29167
1004.33;  658.442;  399.817;  908.467;258.62500
1004.87;  641.442;  369.817;  881.800;271.62500
1005.42;  651.442;  386.483;  873.800;264.95833
1005.96;  646.442;  412.817;  888.800;233.62500
1006.51;  619.108;  424.483;  884.467;194.62500
1007.05;  624.775;  417.483;  903.467;207.29167
1007.60;  642.775;  417.150;  904.800;225.62500
1008.14;  659.775;  437.483;  919.467;222.29167
1008.69;  692.442;  484.483;  941.800;207.95833
1009.23;  674.108;  460.483;  901.467;213.62500
1009.78;  665.775;  427.817;  859.133;237.95833
1010.32;  632.775;  386.483;  802.467;246.29167
1010.87;  626.108;  401.150;  791.800;224.95833
1011.41;  619.108;  414.483;  822.133;204.62500
1011.96;  590.775;  401.817;  803.800;188.95833
1012.50;  588.442;  394.150;  830.800;194.29167
1013.05;  583.775;  374.817;  807.133;208.95833
1013.59;  593.108;  386.817;  794.467;206.29167
1014.13;  633.108;  418.817;  788.133;214.29167
1014.68;  672.442;  461.817;  783.800;210.62500
1015.22;  657.775;  449.817;  788.133;207.95833
1015.77;  647.442;  440.817;  795.133;206.62500
1016.31;  642.775;  428.150;  807.467;214.62500
1016.85;  662.108;  433.483;  821.467;228.62500
1017.40;  617.775;  401.817;  793.133;215.95833
1017.94;  563.775;  367.150;  769.133;196.62500
1018.49;  532.775;  371.483;  766.800;161.29167
1019.03;  544.442;  381.150;  768.467;163.29167
1019.57;  540.108;  372.483;  754.800;167.62500
1020.12;  579.108;  391.150;  755.800;187.95833
1020.66;  586.108;  404.483;  753.133;181.62500
1021.20;  620.442;  435.483;  772.133;184.95833
1021.75;  591.775;  411.150;  759.133;180.62500
1022.29;  570.775;  400.817;  774.133;169.95833
1022.83;  573.108;  390.150;  785.800;182.95833
1023.38;  581.775;  394.817;  785.800;186.95833
1023.92;  585.775;  394.150;  764.133;191.62500
1024.46;  545.442;  384.483;  721.800;160.95833
1025.01;  497.108;  366.483;  688.467;130.62500
1025.55;  492.108;  348.483;  676.800;143.62500
1026.09;  507.108;  346.150;  678.800;160.95833
1026.64;  556.442;  381.817;  714.800;174.62500
1027.18;  604.442;  432.483;  744.467;171.95833
1027.72;  608.775;  436.817;  759.800;171.95833
1028.27;  584.775;  399.817;  729.133;184.95833
1028.81;  672.108;  491.817;  804.800;180.29167
1029.35;  674.775;  496.483;  790.133;178.29167
1029.89;  681.442;  517.150;  797.800;164.29167
1030.44;  557.108;  394.817;  692.133;162.29167
1030.98;  527.108;  400.817;  684.133;126.29167
1031.52;  544.108;  421.483;  692.467;122.62500
1032.07;  549.442;  425.150;  705.800;124.29167
1032.61;  569.442;  446.150;  701.467;123.29167
1033.15;  543.442;  431.817;  674.800;111.62500
1033.69;  515.775;  418.817;  656.133;96.95833
1034.23;  512.442;  402.483;  659.800;109.95833
1034.78;  537.108;  393.483;  665.133;143.62500
1035.32;  539.775;  381.817;  652.800;157.95833
1035.86;  632.775;  457.483;  735.467;175.29167
1036.40;  662.775;  486.483;  744.800;176.29167
1036.95;  681.108;  519.817;  752.800;161.29167
1037.49;  552.775;  419.817;  652.800;132.95833
1038.03;  606.108;  491.817;  731.800;114.29167
1038.57;  605.775;  496.150;  746.467;109.62500
1039.11;  619.442;  495.483;  771.133;123.95833
1039.66;  533.442;  405.483;  712.467;127.95833
1040.20;  552.108;  413.483;  731.133;138.62500
1040.74;  559.442;  432.150;  697.800;127.29167
1041.28;  532.442;  433.817;  650.467;98.62500
1041.82;  504.442;  405.483;  581.467;98.95833
1042.36;  510.108;  393.817;  562.133;116.29167
1042.91;  505.442;  383.150;  543.467;122.29167
1043.45;  487.775;  384.483;  559.467;103.29167
1043.99;  508.108;  393.817;  609.133;114.29167
1044.53;  527.442;  401.483;  653.467;125.95833
1045.07;  551.108;  393.150;  665.133;157.95833
1045.61;  622.775;  462.483;  750.467;160.29167
1046.15;  635.442;  453.817;  729.800;181.62500
1046.69;  626.108;  446.483;  681.800;179.62500
1047.24;  527.775;  363.150;  552.800;164.62500
1047.78;  503.442;  370.483;  534.467;132.95833
1048.32;  488.775;  387.817;  577.133;100.95833
1048.86;  489.775;  406.817;  586.133;82.95833
1049.40;  498.442;  397.150;  602.133;101.29167
1049.94;  523.108;  389.483;  605.800;133.62500
1050.48;  543.775;  388.483;  627.133;155.29167
1051.02;  565.108;  375.817;  637.133;189.29167
1051.56;  581.775;  391.150;  656.133;190.62500
1052.10;  566.775;  389.483;  640.133;177.29167
1052.64;  535.775;  400.817;  600.800;134.95833
1053.18;  519.442;  406.483;  584.133;112.95833
1053.72;  520.775;  414.817;  571.133;105.95833
1054.26;  541.775;  433.817;  586.467;107.95833
1054.81;  547.442;  439.483;  571.133;107.95833
1055.35;  543.108;  413.817;  586.800;129.29167
1055.89;  526.442;  384.150;  599.133;142.29167
1056.43;  595.775;  427.817;  687.467;167.95833
1056.97;  625.775;  446.150;  711.800;179.62500
1057.51;  647.108;  452.817;  724.133;194.29167
1058.05;  559.108;  377.817;  627.133;181.29167
1058.59;  546.775;  389.483;  605.467;157.29167
1059.13;  545.442;  410.150;  584.467;135.29167
1059.67;  552.442;  430.150;  587.467;122.29167
1060.21;  544.442;  421.483;  583.467;122.95833
1060.75;  500.442;  397.817;  550.133;102.62500
1061.29;  472.108;  390.817;  538.467;81.29167
1061.82;  462.108;  383.817;  536.800;78.29167
1062.36;  481.775;  391.150;  563.133;90.62500
1062.90;  482.442;  379.483;  566.467;102.95833
1063.44;  474.442;  383.150;  561.133;91.29167
1063.98;  474.108;  380.483;  571.800;93.62500
1064.52;  489.108;  380.483;  562.467;108.62500
1065.06;  488.108;  358.817;  563.467;129.29167
1065.60;  507.775;  378.817;  578.467;128.95833
1066.14;  505.775;  373.150;  610.467;132.62500
1066.68;  520.442;  389.817;  621.133;130.62500
1067.22;  494.775;  371.150;  629.133;123.62500
1067.76;  505.108;  387.150;  622.133;117.95833
1068.30;  489.442;  373.817;  597.800;115.62500
1068.84;  495.775;  377.150;  576.467;118.62500
1069.37;  489.775;  379.483;  562.467;110.29167
1069.91;  468.442;  381.483;  551.133;86.95833
1070.45;  488.108;  399.483;  544.467;88.62500
1070.99;  712.108;  612.150;  757.133;99.95833
1071.53;  752.442;  650.483;  805.800;101.95833
1072.07;  722.775;  634.817;  801.467;87.95833
1072.61;  502.775;  419.817;  606.467;82.95833
1073.15;  500.108;  399.483;  587.133;100.62500
1073.68;  531.442;  414.483;  625.467;116.95833
1074.22;  543.775;  413.483;  632.467;130.29167
1074.76;  530.775;  402.817;  628.133;127.95833
1075.30;  506.108;  391.483;  603.133;114.62500
1075.84;  510.775;  416.150;  602.800;94.62500
1076.38;  551.775;  475.150;  648.800;76.62500
1076.91;  564.108;  481.150;  647.800;82.95833
1077.45;  554.108;  470.483;  644.133;83.62500
1077.99;  527.775;  427.483;  610.800;100.29167
1078.53;  512.775;  405.817;  593.133;106.95833
1079.07;  488.108;  388.483;  563.467;99.62500
1079.60;  478.442;  375.483;  528.467;102.95833
1080.14;  483.442;  382.817;  537.467;100.62500
1080.68;  513.442;  403.483;  585.467;109.95833
1081.22;  551.108;  429.150;  663.800;121.95833
1081.76;  604.775;  483.150;  724.800;121.62500
1082.29;  605.442;  481.817;  743.467;123.62500
1082.83;  572.775;  455.483;  711.467;117.29167
1083.37;  553.108;  435.150;  686.133;117.95833
1083.91;  555.108;  427.483;  634.467;127.62500
1084.44;  535.108;  430.483;  580.800;104.62500
1084.98;  509.442;  417.817;  540.800;91.62500
1085.52;  477.775;  422.483;  518.800;55.29167
1086.05;  464.775;  421.150;  500.133;43.62500
1086.59;  431.108;  412.150;  467.800;18.95833
1087.13;  449.775;  400.483;  497.133;49.29167
1087.67;  471.442;  394.817;  554.467;76.62500
1088.20;  502.108;  393.150;  624.133;108.95833
1088.74;  535.108;  405.150;  682.133;129.95833
1089.28;  543.108;  400.483;  727.467;142.62500
1089.81;  611.108;  413.817;  784.133;197.29167
1090.35;  628.442;  421.483;  832.133;206.95833
1090.89;  652.442;  422.817;  848.133;229.62500
1091.42;  636.442;  426.817;  822.467;209.62500
1091.96;  609.108;  413.817;  776.467;195.29167
1092.50;  613.108;  426.483;  736.133;186.62500
1093.03;  595.775;  425.817;  722.133;169.95833
1093.57;  603.775;  435.150;  665.467;168.62500
1094.11;  591.775;  423.817;  620.133;167.95833
1094.64;  602.108;  445.817;  594.467;156.29167
1095.18;  578.775;  460.817;  580.800;117.95833
1095.72;  548.108;  463.817;  565.133;84.29167
1096.25;  502.108;  416.483;  516.800;85.62500
1096.79;  482.108;  373.483;  498.133;108.62500
1097.33;  475.775;  385.817;  493.133;89.95833
1097.86;  457.442;  402.817;  516.133;54.62500
1098.40;  440.775;  407.150;  526.467;33.62500
1098.93;  437.108;  388.817;  531.133;48.29167
1099.47;  448.442;  371.817;  549.800;76.62500
1100.01;  476.775;  386.483;  568.467;90.29167

