# wl, theta
 300.00000, -60.63661
 300.90090, -60.52686
 301.80180, -60.41712
 302.70270, -60.30737
 303.60360, -60.19763
 304.50450, -60.08789
 305.40541, -59.97996
 306.30631, -59.87425
 307.20721, -59.76853
 308.10811, -59.66282
 309.00901, -59.55711
 309.90991, -59.45140
 310.81081, -59.35219
 311.71171, -59.25370
 312.61261, -59.15521
 313.51351, -59.05673
 314.41441, -58.95824
 315.31532, -58.86026
 316.21622, -58.76322
 317.11712, -58.66617
 318.01802, -58.56913
 318.91892, -58.47209
 319.81982, -58.37504
 320.72072, -58.28082
 321.62162, -58.18731
 322.52252, -58.09379
 323.42342, -58.00028
 324.32432, -57.90676
 325.22523, -57.81375
 326.12613, -57.72225
 327.02703, -57.63075
 327.92793, -57.53924
 328.82883, -57.44774
 329.72973, -57.35624
 330.63063, -57.26696
 331.53153, -57.17863
 332.43243, -57.09030
 333.33333, -57.00197
 334.23423, -56.91364
 335.13514, -56.82575
 336.03604, -56.74036
 336.93694, -56.65498
 337.83784, -56.56959
 338.73874, -56.48421
 339.63964, -56.39882
 340.54054, -56.31470
 341.44144, -56.23142
 342.34234, -56.14815
 343.24324, -56.06487
 344.14414, -55.98160
 345.04505, -55.89845
 345.94595, -55.81775
 346.84685, -55.73704
 347.74775, -55.65634
 348.64865, -55.57563
 349.54955, -55.49493
 350.45045, -55.41526
 351.35135, -55.33663
 352.25225, -55.25799
 353.15315, -55.17936
 354.05405, -55.10072
 354.95495, -55.02209
 355.85586, -54.94524
 356.75676, -54.86848
 357.65766, -54.79172
 358.55856, -54.71495
 359.45946, -54.63819
 360.36036, -54.56230
 361.26126, -54.48771
 362.16216, -54.41311
 363.06306, -54.33852
 363.96396, -54.26392
 364.86486, -54.18933
 365.76577, -54.11549
 366.66667, -54.04180
 367.56757, -53.96810
 368.46847, -53.89440
 369.36937, -53.82070
 370.27027, -53.74756
 371.17117, -53.67572
 372.07207, -53.60388
 372.97297, -53.53204
 373.87387, -53.46020
 374.77477, -53.38837
 375.67568, -53.31767
 376.57658, -53.24735
 377.47748, -53.17703
 378.37838, -53.10671
 379.27928, -53.03639
 380.18018, -52.96640
 381.08108, -52.89775
 381.98198, -52.82909
 382.88288, -52.76044
 383.78378, -52.69178
 384.68468, -52.62313
 385.58559, -52.55523
 386.48649, -52.48774
 387.38739, -52.42025
 388.28829, -52.35276
 389.18919, -52.28528
 390.09009, -52.21792
 390.99099, -52.15179
 391.89189, -52.08566
 392.79279, -52.01953
 393.69369, -51.95340
 394.59459, -51.88727
 395.49550, -51.82158
 396.39640, -51.75625
 397.29730, -51.69092
 398.19820, -51.62559
 399.09910, -51.56026
 400.00000, -51.49492
 400.90090, -51.43112
 401.80180, -51.36732
 402.70270, -51.30352
 403.60360, -51.23971
 404.50450, -51.17591
 405.40541, -51.11249
 406.30631, -51.04955
 407.20721, -50.98660
 408.10811, -50.92366
 409.00901, -50.86071
 409.90991, -50.79776
 410.81081, -50.73584
 411.71171, -50.67404
 412.61261, -50.61223
 413.51351, -50.55042
 414.41441, -50.48862
 415.31532, -50.42702
 416.21622, -50.36582
 417.11712, -50.30462
 418.01802, -50.24343
 418.91892, -50.18223
 419.81982, -50.12103
 420.72072, -50.06052
 421.62162, -50.00019
 422.52252, -49.93986
 423.42342, -49.87952
 424.32432, -49.81919
 425.22523, -49.75908
 426.12613, -49.69966
 427.02703, -49.64023
 427.92793, -49.58080
 428.82883, -49.52137
 429.72973, -49.46195
 430.63063, -49.40320
 431.53153, -49.34474
 432.43243, -49.28628
 433.33333, -49.22782
 434.23423, -49.16936
 435.13514, -49.11098
 436.03604, -49.05310
 436.93694, -48.99521
 437.83784, -48.93733
 438.73874, -48.87944
 439.63964, -48.82156
 440.54054, -48.76416
 441.44144, -48.70708
 442.34234, -48.65000
 443.24324, -48.59292
 444.14414, -48.53584
 445.04505, -48.47880
 445.94595, -48.42248
 446.84685, -48.36616
 447.74775, -48.30985
 448.64865, -48.25353
 449.54955, -48.19721
 450.45045, -48.14118
 451.35135, -48.08546
 452.25225, -48.02973
 453.15315, -47.97401
 454.05405, -47.91828
 454.95495, -47.86256
 455.85586, -47.80735
 456.75676, -47.75217
 457.65766, -47.69698
 458.55856, -47.64180
 459.45946, -47.58662
 460.36036, -47.53166
 461.26126, -47.47703
 462.16216, -47.42241
 463.06306, -47.36778
 463.96396, -47.31316
 464.86486, -47.25853
 465.76577, -47.20451
 466.66667, -47.15059
 467.56757, -47.09667
 468.46847, -47.04276
 469.36937, -46.98884
 470.27027, -46.93510
 471.17117, -46.88177
 472.07207, -46.82844
 472.97297, -46.77512
 473.87387, -46.72179
 474.77477, -46.66846
 475.67568, -46.61544
 476.57658, -46.56252
 477.47748, -46.50960
 478.37838, -46.45667
 479.27928, -46.40375
 480.18018, -46.35097
 481.08108, -46.29872
 481.98198, -46.24647
 482.88288, -46.19423
 483.78378, -46.14198
 484.68468, -46.08973
 485.58559, -46.03776
 486.48649, -45.98593
 487.38739, -45.93409
 488.28829, -45.88226
 489.18919, -45.83043
 490.09009, -45.77865
 490.99099, -45.72734
 491.89189, -45.67602
 492.79279, -45.62471
 493.69369, -45.57340
 494.59459, -45.52208
 495.49550, -45.47093
 496.39640, -45.41990
 497.29730, -45.36887
 498.19820, -45.31785
 499.09910, -45.26682
 500.00000, -45.21579
 500.90090, -45.16521
 501.80180, -45.11462
 502.70270, -45.06404
 503.60360, -45.01345
 504.50450, -44.96287
 505.40541, -44.91252
 506.30631, -44.86246
 507.20721, -44.81240
 508.10811, -44.76234
 509.00901, -44.71228
 509.90991, -44.66222
 510.81081, -44.61253
 511.71171, -44.56287
 512.61261, -44.51321
 513.51351, -44.46355
 514.41441, -44.41390
 515.31532, -44.36433
 516.21622, -44.31495
 517.11712, -44.26556
 518.01802, -44.21617
 518.91892, -44.16679
 519.81982, -44.11740
 520.72072, -44.06848
 521.62162, -44.01968
 522.52252, -43.97087
 523.42342, -43.92207
 524.32432, -43.87326
 525.22523, -43.82451
 526.12613, -43.77592
 527.02703, -43.72732
 527.92793, -43.67873
 528.82883, -43.63013
 529.72973, -43.58154
 530.63063, -43.53329
 531.53153, -43.48519
 532.43243, -43.43709
 533.33333, -43.38899
 534.23423, -43.34089
 535.13514, -43.29283
 536.03604, -43.24499
 536.93694, -43.19716
 537.83784, -43.14933
 538.73874, -43.10150
 539.63964, -43.05366
 540.54054, -43.00604
 541.44144, -42.95855
 542.34234, -42.91107
 543.24324, -42.86358
 544.14414, -42.81610
 545.04505, -42.76863
 545.94595, -42.72141
 546.84685, -42.67419
 547.74775, -42.62698
 548.64865, -42.57976
 549.54955, -42.53255
 550.45045, -42.48548
 551.35135, -42.43855
 552.25225, -42.39162
 553.15315, -42.34470
 554.05405, -42.29777
 554.95495, -42.25085
 555.85586, -42.20425
 556.75676, -42.15766
 557.65766, -42.11108
 558.55856, -42.06450
 559.45946, -42.01792
 560.36036, -41.97150
 561.26126, -41.92533
 562.16216, -41.87917
 563.06306, -41.83300
 563.96396, -41.78683
 564.86486, -41.74066
 565.76577, -41.69470
 566.66667, -41.64878
 567.56757, -41.60286
 568.46847, -41.55693
 569.36937, -41.51101
 570.27027, -41.46514
 571.17117, -41.41941
 572.07207, -41.37368
 572.97297, -41.32795
 573.87387, -41.28222
 574.77477, -41.23648
 575.67568, -41.19095
 576.57658, -41.14548
 577.47748, -41.10001
 578.37838, -41.05455
 579.27928, -41.00908
 580.18018, -40.96368
 581.08108, -40.91859
 581.98198, -40.87349
 582.88288, -40.82839
 583.78378, -40.78330
 584.68468, -40.73820
 585.58559, -40.69321
 586.48649, -40.64828
 587.38739, -40.60335
 588.28829, -40.55842
 589.18919, -40.51349
 590.09009, -40.46860
 590.99099, -40.42405
 591.89189, -40.37950
 592.79279, -40.33494
 593.69369, -40.29039
 594.59459, -40.24584
 595.49550, -40.20134
 596.39640, -40.15688
 597.29730, -40.11241
 598.19820, -40.06795
 599.09910, -40.02349
 600.00000, -39.97903
 600.90090, -39.93501
 601.80180, -39.89099
 602.70270, -39.84697
 603.60360, -39.80296
 604.50450, -39.75894
 605.40541, -39.71498
 606.30631, -39.67111
 607.20721, -39.62723
 608.10811, -39.58335
 609.00901, -39.53947
 609.90991, -39.49559
 610.81081, -39.45188
 611.71171, -39.40819
 612.61261, -39.36450
 613.51351, -39.32081
 614.41441, -39.27711
 615.31532, -39.23351
 616.21622, -39.19008
 617.11712, -39.14665
 618.01802, -39.10322
 618.91892, -39.05979
 619.81982, -39.01636
 620.72072, -38.97313
 621.62162, -38.92996
 622.52252, -38.88678
 623.42342, -38.84361
 624.32432, -38.80043
 625.22523, -38.75730
 626.12613, -38.71430
 627.02703, -38.67130
 627.92793, -38.62830
 628.82883, -38.58531
 629.72973, -38.54231
 630.63063, -38.49950
 631.53153, -38.45677
 632.43243, -38.41404
 633.33333, -38.37131
 634.23423, -38.32858
 635.13514, -38.28587
 636.03604, -38.24324
 636.93694, -38.20061
 637.83784, -38.15798
 638.73874, -38.11535
 639.63964, -38.07272
 640.54054, -38.03024
 641.44144, -37.98787
 642.34234, -37.94549
 643.24324, -37.90312
 644.14414, -37.86074
 645.04505, -37.81838
 645.94595, -37.77629
 646.84685, -37.73420
 647.74775, -37.69211
 648.64865, -37.65002
 649.54955, -37.60793
 650.45045, -37.56591
 651.35135, -37.52395
 652.25225, -37.48200
 653.15315, -37.44005
 654.05405, -37.39810
 654.95495, -37.35615
 655.85586, -37.31444
 656.75676, -37.27275
 657.65766, -37.23105
 658.55856, -37.18935
 659.45946, -37.14766
 660.36036, -37.10600
 661.26126, -37.06441
 662.16216, -37.02283
 663.06306, -36.98124
 663.96396, -36.93965
 664.86486, -36.89806
 665.76577, -36.85666
 666.66667, -36.81528
 667.56757, -36.77391
 668.46847, -36.73254
 669.36937, -36.69116
 670.27027, -36.64989
 671.17117, -36.60887
 672.07207, -36.56785
 672.97297, -36.52683
 673.87387, -36.48582
 674.77477, -36.44480
 675.67568, -36.40370
 676.57658, -36.36258
 677.47748, -36.32146
 678.37838, -36.28034
 679.27928, -36.23922
 680.18018, -36.19816
 681.08108, -36.15735
 681.98198, -36.11654
 682.88288, -36.07573
 683.78378, -36.03492
 684.68468, -35.99411
 685.58559, -35.95345
 686.48649, -35.91287
 687.38739, -35.87230
 688.28829, -35.83172
 689.18919, -35.79115
 690.09009, -35.75059
 690.99099, -35.71018
 691.89189, -35.66978
 692.79279, -35.62938
 693.69369, -35.58897
 694.59459, -35.54857
 695.49550, -35.50824
 696.39640, -35.46798
 697.29730, -35.42772
 698.19820, -35.38746
 699.09910, -35.34720
 700.00000, -35.30693
 700.90090, -35.26685
 701.80180, -35.22677
 702.70270, -35.18669
 703.60360, -35.14660
 704.50450, -35.10652
 705.40541, -35.06654
 706.30631, -35.02669
 707.20721, -34.98683
 708.10811, -34.94698
 709.00901, -34.90713
 709.90991, -34.86727
 710.81081, -34.82754
 711.71171, -34.78782
 712.61261, -34.74810
 713.51351, -34.70839
 714.41441, -34.66867
 715.31532, -34.62900
 716.21622, -34.58942
 717.11712, -34.54984
 718.01802, -34.51026
 718.91892, -34.47068
 719.81982, -34.43110
 720.72072, -34.39166
 721.62162, -34.35226
 722.52252, -34.31286
 723.42342, -34.27346
 724.32432, -34.23406
 725.22523, -34.19472
 726.12613, -34.15559
 727.02703, -34.11646
 727.92793, -34.07733
 728.82883, -34.03819
 729.72973, -33.99906
 730.63063, -33.96003
 731.53153, -33.92106
 732.43243, -33.88208
 733.33333, -33.84310
 734.23423, -33.80412
 735.13514, -33.76517
 736.03604, -33.72639
 736.93694, -33.68761
 737.83784, -33.64883
 738.73874, -33.61005
 739.63964, -33.57127
 740.54054, -33.53259
 741.44144, -33.49398
 742.34234, -33.45536
 743.24324, -33.41675
 744.14414, -33.37814
 745.04505, -33.33953
 745.94595, -33.30115
 746.84685, -33.26277
 747.74775, -33.22439
 748.64865, -33.18600
 749.54955, -33.14762
 750.45045, -33.10940
 751.35135, -33.07135
 752.25225, -33.03330
 753.15315, -32.99524
 754.05405, -32.95719
 754.95495, -32.91914
 755.85586, -32.88118
 756.75676, -32.84323
 757.65766, -32.80528
 758.55856, -32.76733
 759.45946, -32.72938
 760.36036, -32.69157
 761.26126, -32.65398
 762.16216, -32.61638
 763.06306, -32.57879
 763.96396, -32.54120
 764.86486, -32.50360
 765.76577, -32.46604
 766.66667, -32.42849
 767.56757, -32.39093
 768.46847, -32.35338
 769.36937, -32.31583
 770.27027, -32.27839
 771.17117, -32.24123
 772.07207, -32.20407
 772.97297, -32.16691
 773.87387, -32.12975
 774.77477, -32.09259
 775.67568, -32.05561
 776.57658, -32.01868
 777.47748, -31.98176
 778.37838, -31.94483
 779.27928, -31.90790
 780.18018, -31.87106
 781.08108, -31.83452
 781.98198, -31.79798
 782.88288, -31.76144
 783.78378, -31.72490
 784.68468, -31.68837
 785.58559, -31.65192
 786.48649, -31.61553
 787.38739, -31.57914
 788.28829, -31.54274
 789.18919, -31.50635
 790.09009, -31.46999
 790.99099, -31.43392
 791.89189, -31.39784
 792.79279, -31.36176
 793.69369, -31.32569
 794.59459, -31.28961
 795.49550, -31.25354
 796.39640, -31.21746
 797.29730, -31.18139
 798.19820, -31.14531
 799.09910, -31.10924
 800.00000, -31.07317
 800.90090, -31.03761
 801.80180, -31.00206
 802.70270, -30.96650
 803.60360, -30.93095
 804.50450, -30.89539
 805.40541, -30.85982
 806.30631, -30.82422
 807.20721, -30.78862
 808.10811, -30.75303
 809.00901, -30.71743
 809.90991, -30.68184
 810.81081, -30.64634
 811.71171, -30.61085
 812.61261, -30.57536
 813.51351, -30.53987
 814.41441, -30.50438
 815.31532, -30.46892
 816.21622, -30.43351
 817.11712, -30.39811
 818.01802, -30.36271
 818.91892, -30.32730
 819.81982, -30.29190
 820.72072, -30.25659
 821.62162, -30.22130
 822.52252, -30.18600
 823.42342, -30.15071
 824.32432, -30.11542
 825.22523, -30.08005
 826.12613, -30.04441
 827.02703, -30.00878
 827.92793, -29.97315
 828.82883, -29.93752
 829.72973, -29.90189
 830.63063, -29.86619
 831.53153, -29.83045
 832.43243, -29.79472
 833.33333, -29.75898
 834.23423, -29.72325
 835.13514, -29.68746
 836.03604, -29.65140
 836.93694, -29.61534
 837.83784, -29.57927
 838.73874, -29.54321
 839.63964, -29.50715
 840.54054, -29.47096
 841.44144, -29.43469
 842.34234, -29.39841
 843.24324, -29.36214
 844.14414, -29.32587
 845.04505, -29.28959
 845.94595, -29.25309
 846.84685, -29.21659
 847.74775, -29.18008
 848.64865, -29.14358
 849.54955, -29.10708
 850.45045, -29.07048
 851.35135, -29.03379
 852.25225, -28.99709
 853.15315, -28.96039
 854.05405, -28.92369
 854.95495, -28.88699
 855.85586, -28.84987
 856.75676, -28.81273
 857.65766, -28.77559
 858.55856, -28.73845
 859.45946, -28.70130
 860.36036, -28.66418
 861.26126, -28.62708
 862.16216, -28.58998
 863.06306, -28.55288
 863.96396, -28.51579
 864.86486, -28.47869
 865.76577, -28.44136
 866.66667, -28.40399
 867.56757, -28.36661
 868.46847, -28.32924
 869.36937, -28.29187
 870.27027, -28.25447
 871.17117, -28.21702
 872.07207, -28.17956
 872.97297, -28.14211
 873.87387, -28.10465
 874.77477, -28.06720
 875.67568, -28.02965
 876.57658, -27.99208
 877.47748, -27.95450
 878.37838, -27.91693
 879.27928, -27.87935
 880.18018, -27.84178
 881.08108, -27.80420
 881.98198, -27.76663
 882.88288, -27.72905
 883.78378, -27.69148
 884.68468, -27.65390
 885.58559, -27.61629
 886.48649, -27.57866
 887.38739, -27.54103
 888.28829, -27.50340
 889.18919, -27.46577
 890.09009, -27.42814
 890.99099, -27.39046
 891.89189, -27.35277
 892.79279, -27.31509
 893.69369, -27.27741
 894.59459, -27.23973
 895.49550, -27.20210
 896.39640, -27.16452
 897.29730, -27.12694
 898.19820, -27.08937
 899.09910, -27.05179
 900.00000, -27.01421
 900.90090, -26.97666
 901.80180, -26.93912
 902.70270, -26.90157
 903.60360, -26.86403
 904.50450, -26.82649
 905.40541, -26.78894
 906.30631, -26.75140
 907.20721, -26.71386
 908.10811, -26.67631
 909.00901, -26.63877
 909.90991, -26.60123
 910.81081, -26.56376
 911.71171, -26.52630
 912.61261, -26.48884
 913.51351, -26.45137
 914.41441, -26.41391
 915.31532, -26.37654
 916.21622, -26.33933
 917.11712, -26.30212
 918.01802, -26.26490
 918.91892, -26.22769
 919.81982, -26.19048
 920.72072, -26.15323
 921.62162, -26.11597
 922.52252, -26.07871
 923.42342, -26.04145
 924.32432, -26.00419
 925.22523, -25.96696
 926.12613, -25.92982
 927.02703, -25.89268
 927.92793, -25.85554
 928.82883, -25.81840
 929.72973, -25.78127
 930.63063, -25.74427
 931.53153, -25.70734
 932.43243, -25.67041
 933.33333, -25.63348
 934.23423, -25.59655
 935.13514, -25.55962
 936.03604, -25.52270
 936.93694, -25.48577
 937.83784, -25.44885
 938.73874, -25.41192
 939.63964, -25.37500
 940.54054, -25.33809
 941.44144, -25.30119
 942.34234, -25.26429
 943.24324, -25.22740
 944.14414, -25.19050
 945.04505, -25.15361
 945.94595, -25.11692
 946.84685, -25.08023
 947.74775, -25.04354
 948.64865, -25.00685
 949.54955, -24.97016
 950.45045, -24.93352
 951.35135, -24.89694
 952.25225, -24.86036
 953.15315, -24.82378
 954.05405, -24.78720
 954.95495, -24.75061
 955.85586, -24.71404
 956.75676, -24.67746
 957.65766, -24.64089
 958.55856, -24.60431
 959.45946, -24.56774
 960.36036, -24.53121
 961.26126, -24.49476
 962.16216, -24.45831
 963.06306, -24.42186
 963.96396, -24.38542
 964.86486, -24.34897
 965.76577, -24.31262
 966.66667, -24.27628
 967.56757, -24.23995
 968.46847, -24.20362
 969.36937, -24.16728
 970.27027, -24.13098
 971.17117, -24.09474
 972.07207, -24.05850
 972.97297, -24.02226
 973.87387, -23.98602
 974.77477, -23.94978
 975.67568, -23.91364
 976.57658, -23.87753
 977.47748, -23.84143
 978.37838, -23.80532
 979.27928, -23.76921
 980.18018, -23.73312
 981.08108, -23.69706
 981.98198, -23.66100
 982.88288, -23.62494
 983.78378, -23.58888
 984.68468, -23.55282
 985.58559, -23.51679
 986.48649, -23.48077
 987.38739, -23.44475
 988.28829, -23.40873
 989.18919, -23.37271
 990.09009, -23.33671
 990.99099, -23.30084
 991.89189, -23.26497
 992.79279, -23.22910
 993.69369, -23.19323
 994.59459, -23.15736
 995.49550, -23.12157
 996.39640, -23.08586
 997.29730, -23.05015
 998.19820, -23.01444
 999.09910, -22.97874
1000.00000, -22.94303
1000.90090, -22.90727
1001.80180, -22.87152
1002.70270, -22.83577
1003.60360, -22.80002
1004.50450, -22.76427
1005.40541, -22.72857
1006.30631, -22.69294
1007.20721, -22.65731
1008.10811, -22.62168
1009.00901, -22.58606
1009.90991, -22.55043
1010.81081, -22.51488
1011.71171, -22.47934
1012.61261, -22.44379
1013.51351, -22.40825
1014.41441, -22.37271
1015.31532, -22.33718
1016.21622, -22.30166
1017.11712, -22.26614
1018.01802, -22.23061
1018.91892, -22.19509
1019.81982, -22.15957
1020.72072, -22.12410
1021.62162, -22.08865
1022.52252, -22.05319
1023.42342, -22.01774
1024.32432, -21.98228
1025.22523, -21.94685
1026.12613, -21.91152
1027.02703, -21.87619
1027.92793, -21.84086
1028.82883, -21.80553
1029.72973, -21.77020
1030.63063, -21.73498
1031.53153, -21.69981
1032.43243, -21.66464
1033.33333, -21.62947
1034.23423, -21.59430
1035.13514, -21.55913
1036.03604, -21.52394
1036.93694, -21.48874
1037.83784, -21.45355
1038.73874, -21.41836
1039.63964, -21.38316
1040.54054, -21.34801
1041.44144, -21.31288
1042.34234, -21.27775
1043.24324, -21.24262
1044.14414, -21.20749
1045.04505, -21.17237
1045.94595, -21.13748
1046.84685, -21.10259
1047.74775, -21.06769
1048.64865, -21.03280
1049.54955, -20.99791
1050.45045, -20.96291
1051.35135, -20.92780
1052.25225, -20.89269
1053.15315, -20.85759
1054.05405, -20.82248
1054.95495, -20.78738
1055.85586, -20.75248
1056.75676, -20.71759
1057.65766, -20.68270
1058.55856, -20.64781
1059.45946, -20.61292
1060.36036, -20.57802
1061.26126, -20.54311
1062.16216, -20.50820
1063.06306, -20.47330
1063.96396, -20.43839
1064.86486, -20.40348
1065.76577, -20.36871
1066.66667, -20.33396
1067.56757, -20.29921
1068.46847, -20.26445
1069.36937, -20.22970
1070.27027, -20.19497
1071.17117, -20.16027
1072.07207, -20.12557
1072.97297, -20.09087
1073.87387, -20.05617
1074.77477, -20.02147
1075.67568, -19.98680
1076.57658, -19.95214
1077.47748, -19.91748
1078.37838, -19.88282
1079.27928, -19.84816
1080.18018, -19.81352
1081.08108, -19.77897
1081.98198, -19.74442
